0.200000 0.019464
0.201000 0.019411
0.202000 0.019380
0.203000 0.019373
0.204000 0.019390
0.205000 0.019431
0.206000 0.019490
0.207000 0.019558
0.208000 0.019627
0.209000 0.019690
0.210000 0.019742
0.211000 0.019784
0.212000 0.019819
0.213000 0.019853
0.214000 0.019887
0.215000 0.019918
0.216000 0.019940
0.217000 0.019952
0.218000 0.019954
0.219000 0.019948
0.220000 0.019961
0.221000 0.019978
0.222000 0.019994
0.223000 0.020002
0.224000 0.020009
0.225000 0.020041
0.226000 0.020099
0.227000 0.020182
0.228000 0.020281
0.229000 0.020384
0.230000 0.020478
0.231000 0.020558
0.232000 0.020620
0.233000 0.020661
0.234000 0.020675
0.235000 0.020662
0.236000 0.020622
0.237000 0.020561
0.238000 0.020509
0.239000 0.020485
0.240000 0.020482
0.241000 0.020494
0.242000 0.020509
0.243000 0.020520
0.244000 0.020524
0.245000 0.020521
0.246000 0.020513
0.247000 0.020526
0.248000 0.020542
0.249000 0.020563
0.250000 0.020591
0.251000 0.020632
0.252000 0.020690
0.253000 0.020771
0.254000 0.020873
0.255000 0.020988
0.256000 0.021096
0.257000 0.021178
0.258000 0.021235
0.259000 0.021271
0.260000 0.021291
0.261000 0.021302
0.262000 0.021305
0.263000 0.021300
0.264000 0.021287
0.265000 0.021261
0.266000 0.021222
0.267000 0.021215
0.268000 0.021237
0.269000 0.021282
0.270000 0.021342
0.271000 0.021403
0.272000 0.021456
0.273000 0.021498
0.274000 0.021528
0.275000 0.021546
0.276000 0.021553
0.277000 0.021557
0.278000 0.021580
0.279000 0.021627
0.280000 0.021701
0.281000 0.021808
0.282000 0.021945
0.283000 0.022106
0.284000 0.022284
0.285000 0.022474
0.286000 0.022662
0.287000 0.022823
0.288000 0.022954
0.289000 0.023053
0.290000 0.023121
0.291000 0.023161
0.292000 0.023178
0.293000 0.023174
0.294000 0.023152
0.295000 0.023157
0.296000 0.023202
0.297000 0.023285
0.298000 0.023398
0.299000 0.023534
0.300000 0.023684
0.301000 0.023839
0.302000 0.023992
0.303000 0.024131
0.304000 0.024248
0.305000 0.024326
0.306000 0.024354
0.307000 0.024349
0.308000 0.024383
0.309000 0.024458
0.310000 0.024578
0.311000 0.024744
0.312000 0.024954
0.313000 0.025193
0.314000 0.025447
0.315000 0.025687
0.316000 0.025895
0.317000 0.026071
0.318000 0.026219
0.319000 0.026339
0.320000 0.026429
0.321000 0.026484
0.322000 0.026497
0.323000 0.026464
0.324000 0.026384
0.325000 0.026274
0.326000 0.026187
0.327000 0.026116
0.328000 0.026055
0.329000 0.026001
0.330000 0.025950
0.331000 0.025903
0.332000 0.025857
0.333000 0.025814
0.334000 0.025777
0.335000 0.025751
0.336000 0.025740
0.337000 0.025744
0.338000 0.025760
0.339000 0.025781
0.340000 0.025794
0.341000 0.025784
0.342000 0.025788
0.343000 0.025844
0.344000 0.025962
0.345000 0.026138
0.346000 0.026355
0.347000 0.026587
0.348000 0.026808
0.349000 0.026996
0.350000 0.027135
0.351000 0.027220
0.352000 0.027248
0.353000 0.027219
0.354000 0.027140
0.355000 0.027038
0.356000 0.026973
0.357000 0.026940
0.358000 0.026931
0.359000 0.026938
0.360000 0.026951
0.361000 0.026960
0.362000 0.026957
0.363000 0.026991
0.364000 0.027057
0.365000 0.027149
0.366000 0.027260
0.367000 0.027390
0.368000 0.027538
0.369000 0.027702
0.370000 0.027873
0.371000 0.028045
0.372000 0.028196
0.373000 0.028303
0.374000 0.028367
0.375000 0.028389
0.376000 0.028373
0.377000 0.028326
0.378000 0.028256
0.379000 0.028176
0.380000 0.028104
0.381000 0.028039
0.382000 0.027995
0.383000 0.027978
0.384000 0.027989
0.385000 0.028006
0.386000 0.028005
0.387000 0.027982
0.388000 0.027939
0.389000 0.027901
0.390000 0.027878
0.391000 0.027867
0.392000 0.027858
0.393000 0.027839
0.394000 0.027826
0.395000 0.027833
0.396000 0.027860
0.397000 0.027908
0.398000 0.027979
0.399000 0.028022
0.400000 0.028034
0.401000 0.028021
0.402000 0.027990
0.403000 0.027952
0.404000 0.027913
0.405000 0.027884
0.406000 0.027874
0.407000 0.027887
0.408000 0.027923
0.409000 0.027956
0.410000 0.027990
0.411000 0.028028
0.412000 0.028074
0.413000 0.028134
0.414000 0.028214
0.415000 0.028322
0.416000 0.028461
0.417000 0.028611
0.418000 0.028754
0.419000 0.028878
0.420000 0.028971
0.421000 0.029034
0.422000 0.029069
0.423000 0.029081
0.424000 0.029075
0.425000 0.029054
0.426000 0.029022
0.427000 0.028982
0.428000 0.028937
0.429000 0.028893
0.430000 0.028854
0.431000 0.028817
0.432000 0.028781
0.433000 0.028747
0.434000 0.028720
0.435000 0.028705
0.436000 0.028702
0.437000 0.028709
0.438000 0.028723
0.439000 0.028739
0.440000 0.028753
0.441000 0.028763
0.442000 0.028767
0.443000 0.028767
0.444000 0.028767
0.445000 0.028774
0.446000 0.028797
0.447000 0.028842
0.448000 0.028868
0.449000 0.028874
0.450000 0.028866
0.451000 0.028847
0.452000 0.028822
0.453000 0.028791
0.454000 0.028757
0.455000 0.028720
0.456000 0.028679
0.457000 0.028636
0.458000 0.028588
0.459000 0.028536
0.460000 0.028483
0.461000 0.028431
0.462000 0.028389
0.463000 0.028367
0.464000 0.028366
0.465000 0.028341
0.466000 0.028291
0.467000 0.028216
0.468000 0.028116
0.469000 0.027990
0.470000 0.027843
0.471000 0.027679
0.472000 0.027509
0.473000 0.027343
0.474000 0.027189
0.475000 0.027054
0.476000 0.026942
0.477000 0.026852
0.478000 0.026784
0.479000 0.026740
0.480000 0.026717
0.481000 0.026711
0.482000 0.026717
0.483000 0.026732
0.484000 0.026752
0.485000 0.026775
0.486000 0.026795
0.487000 0.026809
0.488000 0.026818
0.489000 0.026825
0.490000 0.026836
0.491000 0.026857
0.492000 0.026878
0.493000 0.026888
0.494000 0.026891
0.495000 0.026891
0.496000 0.026892
0.497000 0.026903
0.498000 0.026929
0.499000 0.026975
0.500000 0.027044
0.501000 0.027127
0.502000 0.027197
0.503000 0.027250
0.504000 0.027285
0.505000 0.027302
0.506000 0.027303
0.507000 0.027290
0.508000 0.027268
0.509000 0.027241
0.510000 0.027216
0.511000 0.027196
0.512000 0.027188
0.513000 0.027193
0.514000 0.027187
0.515000 0.027167
0.516000 0.027133
0.517000 0.027085
0.518000 0.027027
0.519000 0.026961
0.520000 0.026890
0.521000 0.026819
0.522000 0.026768
0.523000 0.026742
0.524000 0.026738
0.525000 0.026752
0.526000 0.026750
0.527000 0.026735
0.528000 0.026720
0.529000 0.026714
0.530000 0.026722
0.531000 0.026747
0.532000 0.026786
0.533000 0.026844
0.534000 0.026924
0.535000 0.027023
0.536000 0.027137
0.537000 0.027255
0.538000 0.027356
0.539000 0.027441
0.540000 0.027511
0.541000 0.027562
0.542000 0.027584
0.543000 0.027584
0.544000 0.027580
0.545000 0.027586
0.546000 0.027601
0.547000 0.027622
0.548000 0.027650
0.549000 0.027687
0.550000 0.027734
0.551000 0.027796
0.552000 0.027865
0.553000 0.027923
0.554000 0.027967
0.555000 0.027996
0.556000 0.028013
0.557000 0.028017
0.558000 0.028009
0.559000 0.027991
0.560000 0.027965
0.561000 0.027936
0.562000 0.027906
0.563000 0.027876
0.564000 0.027846
0.565000 0.027817
0.566000 0.027792
0.567000 0.027773
0.568000 0.027761
0.569000 0.027756
0.570000 0.027755
0.571000 0.027756
0.572000 0.027756
0.573000 0.027755
0.574000 0.027749
0.575000 0.027738
0.576000 0.027720
0.577000 0.027692
0.578000 0.027657
0.579000 0.027618
0.580000 0.027581
0.581000 0.027553
0.582000 0.027537
0.583000 0.027535
0.584000 0.027545
0.585000 0.027568
0.586000 0.027601
0.587000 0.027641
0.588000 0.027687
0.589000 0.027735
0.590000 0.027783
0.591000 0.027823
0.592000 0.027842
0.593000 0.027838
0.594000 0.027846
0.595000 0.027882
0.596000 0.027930
0.597000 0.027981
0.598000 0.028027
0.599000 0.028065
0.600000 0.028091
0.601000 0.028105
0.602000 0.028106
0.603000 0.028093
0.604000 0.028068
0.605000 0.028035
0.606000 0.028001
0.607000 0.027967
0.608000 0.027938
0.609000 0.027911
0.610000 0.027887
0.611000 0.027864
0.612000 0.027843
0.613000 0.027820
0.614000 0.027797
0.615000 0.027774
0.616000 0.027756
0.617000 0.027750
0.618000 0.027761
0.619000 0.027787
0.620000 0.027797
0.621000 0.027795
0.622000 0.027791
0.623000 0.027793
0.624000 0.027792
0.625000 0.027760
0.626000 0.027695
0.627000 0.027597
0.628000 0.027476
0.629000 0.027344
0.630000 0.027212
0.631000 0.027088
0.632000 0.026976
0.633000 0.026882
0.634000 0.026809
0.635000 0.026761
0.636000 0.026735
0.637000 0.026732
0.638000 0.026722
0.639000 0.026687
0.640000 0.026637
0.641000 0.026581
0.642000 0.026525
0.643000 0.026475
0.644000 0.026434
0.645000 0.026412
0.646000 0.026411
0.647000 0.026402
0.648000 0.026374
0.649000 0.026324
0.650000 0.026252
0.651000 0.026159
0.652000 0.026055
0.653000 0.025942
0.654000 0.025823
0.655000 0.025703
0.656000 0.025589
0.657000 0.025494
0.658000 0.025417
0.659000 0.025356
0.660000 0.025306
0.661000 0.025264
0.662000 0.025227
0.663000 0.025199
0.664000 0.025186
0.665000 0.025197
0.666000 0.025233
0.667000 0.025249
0.668000 0.025247
0.669000 0.025231
0.670000 0.025209
0.671000 0.025186
0.672000 0.025166
0.673000 0.025151
0.674000 0.025141
0.675000 0.025138
0.676000 0.025141
0.677000 0.025127
0.678000 0.025095
0.679000 0.025034
0.680000 0.024939
0.681000 0.024811
0.682000 0.024658
0.683000 0.024487
0.684000 0.024308
0.685000 0.024128
0.686000 0.023950
0.687000 0.023780
0.688000 0.023623
0.689000 0.023482
0.690000 0.023373
0.691000 0.023299
0.692000 0.023259
0.693000 0.023251
0.694000 0.023274
0.695000 0.023282
0.696000 0.023258
0.697000 0.023202
0.698000 0.023114
0.699000 0.023003
0.700000 0.022875
0.701000 0.022736
0.702000 0.022598
0.703000 0.022469
0.704000 0.022362
0.705000 0.022288
0.706000 0.022256
0.707000 0.022251
0.708000 0.022200
0.709000 0.022105
0.710000 0.021967
0.711000 0.021787
0.712000 0.021574
0.713000 0.021343
0.714000 0.021112
0.715000 0.020891
0.716000 0.020688
0.717000 0.020503
0.718000 0.020330
0.719000 0.020172
0.720000 0.020033
0.721000 0.019920
0.722000 0.019840
0.723000 0.019798
0.724000 0.019793
0.725000 0.019808
0.726000 0.019789
0.727000 0.019740
0.728000 0.019669
0.729000 0.019584
0.730000 0.019497
0.731000 0.019408
0.732000 0.019325
0.733000 0.019252
0.734000 0.019190
0.735000 0.019136
0.736000 0.019090
0.737000 0.019049
0.738000 0.019017
0.739000 0.018998
0.740000 0.019000
0.741000 0.019033
0.742000 0.019056
0.743000 0.019024
0.744000 0.018925
0.745000 0.018754
0.746000 0.018524
0.747000 0.018258
0.748000 0.017980
0.749000 0.017731
0.750000 0.017526
0.751000 0.017369
0.752000 0.017259
0.753000 0.017196
0.754000 0.017173
0.755000 0.017164
0.756000 0.017133
0.757000 0.017091
0.758000 0.017048
0.759000 0.017012
0.760000 0.016988
0.761000 0.016980
0.762000 0.016991
0.763000 0.016943
0.764000 0.016856
0.765000 0.016733
0.766000 0.016579
0.767000 0.016396
0.768000 0.016206
0.769000 0.016020
0.770000 0.015849
0.771000 0.015700
0.772000 0.015572
0.773000 0.015465
0.774000 0.015376
0.775000 0.015311
0.776000 0.015285
0.777000 0.015290
0.778000 0.015313
0.779000 0.015340
0.780000 0.015355
0.781000 0.015363
0.782000 0.015361
0.783000 0.015362
0.784000 0.015365
0.785000 0.015374
0.786000 0.015388
0.787000 0.015413
0.788000 0.015446
0.789000 0.015468
0.790000 0.015476
0.791000 0.015478
0.792000 0.015489
0.793000 0.015520
0.794000 0.015552
0.795000 0.015570
0.796000 0.015576
0.797000 0.015572
0.798000 0.015562
0.799000 0.015551
0.800000 0.015538
0.801000 0.015519
0.802000 0.015495
0.803000 0.015466
0.804000 0.015437
0.805000 0.015410
0.806000 0.015382
0.807000 0.015355
0.808000 0.015329
0.809000 0.015303
0.810000 0.015274
0.811000 0.015239
0.812000 0.015196
0.813000 0.015138
0.814000 0.015059
0.815000 0.014954
0.816000 0.014820
0.817000 0.014666
0.818000 0.014505
0.819000 0.014352
0.820000 0.014220
0.821000 0.014113
0.822000 0.014032
0.823000 0.013975
0.824000 0.013939
0.825000 0.013920
0.826000 0.013912
0.827000 0.013910
0.828000 0.013906
0.829000 0.013890
0.830000 0.013856
0.831000 0.013809
0.832000 0.013759
0.833000 0.013710
0.834000 0.013662
0.835000 0.013609
0.836000 0.013549
0.837000 0.013478
0.838000 0.013399
0.839000 0.013322
0.840000 0.013248
0.841000 0.013180
0.842000 0.013117
0.843000 0.013058
0.844000 0.013000
0.845000 0.012952
0.846000 0.012914
0.847000 0.012885
0.848000 0.012862
0.849000 0.012843
0.850000 0.012828
0.851000 0.012813
0.852000 0.012798
0.853000 0.012781
0.854000 0.012762
0.855000 0.012741
0.856000 0.012718
0.857000 0.012693
0.858000 0.012669
0.859000 0.012651
0.860000 0.012644
0.861000 0.012650
0.862000 0.012669
0.863000 0.012694
0.864000 0.012725
0.865000 0.012758
0.866000 0.012791
0.867000 0.012823
0.868000 0.012857
0.869000 0.012895
0.870000 0.012938
0.871000 0.012988
0.872000 0.013042
0.873000 0.013097
0.874000 0.013150
0.875000 0.013199
0.876000 0.013240
0.877000 0.013272
0.878000 0.013291
0.879000 0.013295
0.880000 0.013285
0.881000 0.013257
0.882000 0.013210
0.883000 0.013156
0.884000 0.013113
0.885000 0.013076
0.886000 0.013043
0.887000 0.013013
0.888000 0.012986
0.889000 0.012963
0.890000 0.012942
0.891000 0.012920
0.892000 0.012897
0.893000 0.012870
0.894000 0.012838
0.895000 0.012801
0.896000 0.012756
0.897000 0.012710
0.898000 0.012662
0.899000 0.012609
0.900000 0.012551
0.901000 0.012487
0.902000 0.012420
0.903000 0.012353
0.904000 0.012289
0.905000 0.012231
0.906000 0.012184
0.907000 0.012151
0.908000 0.012135
0.909000 0.012138
0.910000 0.012158
0.911000 0.012194
0.912000 0.012241
0.913000 0.012276
0.914000 0.012301
0.915000 0.012320
0.916000 0.012335
0.917000 0.012349
0.918000 0.012361
0.919000 0.012371
0.920000 0.012379
0.921000 0.012383
0.922000 0.012386
0.923000 0.012400
0.924000 0.012427
0.925000 0.012465
0.926000 0.012508
0.927000 0.012548
0.928000 0.012579
0.929000 0.012595
0.930000 0.012594
0.931000 0.012572
0.932000 0.012530
0.933000 0.012468
0.934000 0.012386
0.935000 0.012286
0.936000 0.012173
0.937000 0.012057
0.938000 0.011966
0.939000 0.011904
0.940000 0.011876
0.941000 0.011884
0.942000 0.011927
0.943000 0.012000
0.944000 0.012095
0.945000 0.012203
0.946000 0.012313
0.947000 0.012417
0.948000 0.012505
0.949000 0.012572
0.950000 0.012613
0.951000 0.012625
0.952000 0.012610
0.953000 0.012573
0.954000 0.012517
0.955000 0.012443
0.956000 0.012351
0.957000 0.012243
0.958000 0.012126
0.959000 0.012014
0.960000 0.011910
0.961000 0.011815
0.962000 0.011733
0.963000 0.011664
0.964000 0.011607
0.965000 0.011560
0.966000 0.011531
0.967000 0.011520
0.968000 0.011524
0.969000 0.011542
0.970000 0.011572
0.971000 0.011612
0.972000 0.011660
0.973000 0.011712
0.974000 0.011769
0.975000 0.011827
0.976000 0.011886
0.977000 0.011942
0.978000 0.011994
0.979000 0.012040
0.980000 0.012079
0.981000 0.012107
0.982000 0.012123
0.983000 0.012122
0.984000 0.012100
0.985000 0.012071
0.986000 0.012045
0.987000 0.012022
0.988000 0.012002
0.989000 0.011984
0.990000 0.011969
0.991000 0.011958
0.992000 0.011954
0.993000 0.011962
0.994000 0.011950
0.995000 0.011916
0.996000 0.011870
0.997000 0.011817
0.998000 0.011761
0.999000 0.011707
1.000000 0.011658
1.001000 0.011620
1.002000 0.011598
1.003000 0.011593
1.004000 0.011604
1.005000 0.011625
1.006000 0.011651
1.007000 0.011678
1.008000 0.011704
1.009000 0.011729
1.010000 0.011753
1.011000 0.011774
1.012000 0.011792
1.013000 0.011807
1.014000 0.011821
1.015000 0.011828
1.016000 0.011825
1.017000 0.011807
1.018000 0.011785
1.019000 0.011782
1.020000 0.011795
1.021000 0.011823
1.022000 0.011864
1.023000 0.011915
1.024000 0.011972
1.025000 0.012026
1.026000 0.012072
1.027000 0.012103
1.028000 0.012114
1.029000 0.012104
1.030000 0.012115
1.031000 0.012144
1.032000 0.012190
1.033000 0.012250
1.034000 0.012323
1.035000 0.012408
1.036000 0.012505
1.037000 0.012614
1.038000 0.012738
1.039000 0.012879
1.040000 0.013030
1.041000 0.013184
1.042000 0.013335
1.043000 0.013477
1.044000 0.013606
1.045000 0.013714
1.046000 0.013798
1.047000 0.013860
1.048000 0.013906
1.049000 0.013940
1.050000 0.013966
1.051000 0.013991
1.052000 0.014011
1.053000 0.014032
1.054000 0.014059
1.055000 0.014097
1.056000 0.014146
1.057000 0.014195
1.058000 0.014242
1.059000 0.014289
1.060000 0.014333
1.061000 0.014377
1.062000 0.014420
1.063000 0.014463
1.064000 0.014504
1.065000 0.014545
1.066000 0.014586
1.067000 0.014628
1.068000 0.014672
1.069000 0.014716
1.070000 0.014754
1.071000 0.014779
1.072000 0.014787
1.073000 0.014778
1.074000 0.014755
1.075000 0.014746
1.076000 0.014772
1.077000 0.014828
1.078000 0.014891
1.079000 0.014959
1.080000 0.015031
1.081000 0.015105
1.082000 0.015177
1.083000 0.015240
1.084000 0.015292
1.085000 0.015332
1.086000 0.015362
1.087000 0.015384
1.088000 0.015399
1.089000 0.015409
1.090000 0.015403
1.091000 0.015391
1.092000 0.015373
1.093000 0.015349
1.094000 0.015321
1.095000 0.015297
1.096000 0.015277
1.097000 0.015256
1.098000 0.015230
1.099000 0.015210
1.100000 0.015204
1.101000 0.015211
1.102000 0.015233
1.103000 0.015270
1.104000 0.015319
1.105000 0.015377
1.106000 0.015440
1.107000 0.015505
1.108000 0.015563
1.109000 0.015610
1.110000 0.015643
1.111000 0.015662
1.112000 0.015670
1.113000 0.015668
1.114000 0.015657
1.115000 0.015638
1.116000 0.015612
1.117000 0.015587
1.118000 0.015565
1.119000 0.015546
1.120000 0.015531
1.121000 0.015519
1.122000 0.015506
1.123000 0.015489
1.124000 0.015468
1.125000 0.015465
1.126000 0.015486
1.127000 0.015534
1.128000 0.015611
1.129000 0.015717
1.130000 0.015843
1.131000 0.015993
1.132000 0.016162
1.133000 0.016340
1.134000 0.016519
1.135000 0.016687
1.136000 0.016830
1.137000 0.016940
1.138000 0.017012
1.139000 0.017045
1.140000 0.017040
1.141000 0.017006
1.142000 0.016962
1.143000 0.016929
1.144000 0.016904
1.145000 0.016886
1.146000 0.016881
1.147000 0.016891
1.148000 0.016921
1.149000 0.016951
1.150000 0.016982
1.151000 0.017014
1.152000 0.017048
1.153000 0.017084
1.154000 0.017124
1.155000 0.017170
1.156000 0.017202
1.157000 0.017216
1.158000 0.017211
1.159000 0.017186
1.160000 0.017156
1.161000 0.017150
1.162000 0.017170
1.163000 0.017209
1.164000 0.017244
1.165000 0.017277
1.166000 0.017315
1.167000 0.017362
1.168000 0.017405
1.169000 0.017440
1.170000 0.017470
1.171000 0.017501
1.172000 0.017540
1.173000 0.017594
1.174000 0.017665
1.175000 0.017742
1.176000 0.017798
1.177000 0.017833
1.178000 0.017850
1.179000 0.017855
1.180000 0.017853
1.181000 0.017848
1.182000 0.017852
1.183000 0.017851
1.184000 0.017844
1.185000 0.017831
1.186000 0.017811
1.187000 0.017786
1.188000 0.017754
1.189000 0.017729
1.190000 0.017720
1.191000 0.017717
1.192000 0.017712
1.193000 0.017699
1.194000 0.017672
1.195000 0.017631
1.196000 0.017581
1.197000 0.017533
1.198000 0.017499
1.199000 0.017492
1.200000 0.017517
1.201000 0.017573
1.202000 0.017651
1.203000 0.017740
1.204000 0.017832
1.205000 0.017919
1.206000 0.018000
1.207000 0.018071
1.208000 0.018131
1.209000 0.018177
1.210000 0.018212
1.211000 0.018237
1.212000 0.018251
1.213000 0.018254
1.214000 0.018247
1.215000 0.018239
1.216000 0.018253
1.217000 0.018280
1.218000 0.018311
1.219000 0.018342
1.220000 0.018366
1.221000 0.018381
1.222000 0.018383
1.223000 0.018370
1.224000 0.018338
1.225000 0.018289
1.226000 0.018225
1.227000 0.018150
1.228000 0.018087
1.229000 0.018040
1.230000 0.018008
1.231000 0.017994
1.232000 0.017994
1.233000 0.018009
1.234000 0.018036
1.235000 0.018076
1.236000 0.018131
1.237000 0.018202
1.238000 0.018286
1.239000 0.018373
1.240000 0.018461
1.241000 0.018548
1.242000 0.018630
1.243000 0.018705
1.244000 0.018771
1.245000 0.018817
1.246000 0.018840
1.247000 0.018844
1.248000 0.018830
1.249000 0.018802
1.250000 0.018767
1.251000 0.018726
1.252000 0.018678
1.253000 0.018622
1.254000 0.018558
1.255000 0.018489
1.256000 0.018426
1.257000 0.018379
1.258000 0.018353
1.259000 0.018348
1.260000 0.018361
1.261000 0.018385
1.262000 0.018416
1.263000 0.018449
1.264000 0.018484
1.265000 0.018522
1.266000 0.018568
1.267000 0.018624
1.268000 0.018684
1.269000 0.018741
1.270000 0.018788
1.271000 0.018819
1.272000 0.018832
1.273000 0.018826
1.274000 0.018802
1.275000 0.018763
1.276000 0.018711
1.277000 0.018651
1.278000 0.018588
1.279000 0.018547
1.280000 0.018527
1.281000 0.018524
1.282000 0.018536
1.283000 0.018544
1.284000 0.018534
1.285000 0.018514
1.286000 0.018495
1.287000 0.018488
1.288000 0.018498
1.289000 0.018520
1.290000 0.018545
1.291000 0.018563
1.292000 0.018562
1.293000 0.018585
1.294000 0.018639
1.295000 0.018721
1.296000 0.018822
1.297000 0.018928
1.298000 0.019037
1.299000 0.019146
1.300000 0.019249
1.301000 0.019343
1.302000 0.019422
1.303000 0.019484
1.304000 0.019527
1.305000 0.019552
1.306000 0.019560
1.307000 0.019557
1.308000 0.019548
1.309000 0.019541
1.310000 0.019541
1.311000 0.019552
1.312000 0.019575
1.313000 0.019608
1.314000 0.019644
1.315000 0.019682
1.316000 0.019720
1.317000 0.019758
1.318000 0.019794
1.319000 0.019826
1.320000 0.019853
1.321000 0.019873
1.322000 0.019870
1.323000 0.019850
1.324000 0.019821
1.325000 0.019782
1.326000 0.019733
1.327000 0.019688
1.328000 0.019664
1.329000 0.019666
1.330000 0.019691
1.331000 0.019742
1.332000 0.019818
1.333000 0.019922
1.334000 0.020051
1.335000 0.020196
1.336000 0.020345
1.337000 0.020485
1.338000 0.020584
1.339000 0.020641
1.340000 0.020657
1.341000 0.020632
1.342000 0.020570
1.343000 0.020487
1.344000 0.020405
1.345000 0.020318
1.346000 0.020220
1.347000 0.020111
1.348000 0.019992
1.349000 0.019875
1.350000 0.019794
1.351000 0.019757
1.352000 0.019762
1.353000 0.019804
1.354000 0.019877
1.355000 0.019972
1.356000 0.020086
1.357000 0.020215
1.358000 0.020353
1.359000 0.020488
1.360000 0.020617
1.361000 0.020741
1.362000 0.020859
1.363000 0.020969
1.364000 0.021071
1.365000 0.021164
1.366000 0.021238
1.367000 0.021288
1.368000 0.021314
1.369000 0.021318
1.370000 0.021302
1.371000 0.021268
1.372000 0.021221
1.373000 0.021171
1.374000 0.021121
1.375000 0.021072
1.376000 0.021025
1.377000 0.020980
1.378000 0.020940
1.379000 0.020906
1.380000 0.020881
1.381000 0.020866
1.382000 0.020860
1.383000 0.020866
1.384000 0.020882
1.385000 0.020891
1.386000 0.020879
1.387000 0.020853
1.388000 0.020835
1.389000 0.020827
1.390000 0.020830
1.391000 0.020843
1.392000 0.020867
1.393000 0.020898
1.394000 0.020933
1.395000 0.020957
1.396000 0.020965
1.397000 0.020964
1.398000 0.020961
1.399000 0.020967
1.400000 0.020989
1.401000 0.021029
1.402000 0.021088
1.403000 0.021162
1.404000 0.021251
1.405000 0.021353
1.406000 0.021467
1.407000 0.021587
1.408000 0.021711
1.409000 0.021835
1.410000 0.021957
1.411000 0.022075
1.412000 0.022186
1.413000 0.022284
1.414000 0.022369
1.415000 0.022441
1.416000 0.022504
1.417000 0.022562
1.418000 0.022605
1.419000 0.022615
1.420000 0.022594
1.421000 0.022547
1.422000 0.022505
1.423000 0.022470
1.424000 0.022445
1.425000 0.022431
1.426000 0.022431
1.427000 0.022445
1.428000 0.022471
1.429000 0.022504
1.430000 0.022498
1.431000 0.022458
1.432000 0.022427
1.433000 0.022410
1.434000 0.022408
1.435000 0.022422
1.436000 0.022446
1.437000 0.022473
1.438000 0.022493
1.439000 0.022497
1.440000 0.022479
1.441000 0.022444
1.442000 0.022395
1.443000 0.022336
1.444000 0.022269
1.445000 0.022195
1.446000 0.022113
1.447000 0.022064
1.448000 0.022052
1.449000 0.022070
1.450000 0.022109
1.451000 0.022163
1.452000 0.022222
1.453000 0.022276
1.454000 0.022317
1.455000 0.022340
1.456000 0.022338
1.457000 0.022307
1.458000 0.022249
1.459000 0.022218
1.460000 0.022213
1.461000 0.022228
1.462000 0.022257
1.463000 0.022297
1.464000 0.022348
1.465000 0.022408
1.466000 0.022476
1.467000 0.022545
1.468000 0.022614
1.469000 0.022687
1.470000 0.022771
1.471000 0.022871
1.472000 0.022989
1.473000 0.023120
1.474000 0.023257
1.475000 0.023370
1.476000 0.023442
1.477000 0.023475
1.478000 0.023476
1.479000 0.023454
1.480000 0.023416
1.481000 0.023372
1.482000 0.023332
1.483000 0.023303
1.484000 0.023288
1.485000 0.023287
1.486000 0.023299
1.487000 0.023320
1.488000 0.023347
1.489000 0.023378
1.490000 0.023412
1.491000 0.023449
1.492000 0.023488
1.493000 0.023537
1.494000 0.023593
1.495000 0.023647
1.496000 0.023702
1.497000 0.023763
1.498000 0.023834
1.499000 0.023901
1.500000 0.023957
1.501000 0.024000
1.502000 0.024031
1.503000 0.024050
1.504000 0.024061
1.505000 0.024064
1.506000 0.024060
1.507000 0.024052
1.508000 0.024043
1.509000 0.024041
1.510000 0.024048
1.511000 0.024067
1.512000 0.024096
1.513000 0.024137
1.514000 0.024188
1.515000 0.024247
1.516000 0.024312
1.517000 0.024374
1.518000 0.024425
1.519000 0.024464
1.520000 0.024490
1.521000 0.024503
1.522000 0.024509
1.523000 0.024515
1.524000 0.024524
1.525000 0.024518
1.526000 0.024496
1.527000 0.024456
1.528000 0.024396
1.529000 0.024315
1.530000 0.024213
1.531000 0.024089
1.532000 0.023943
1.533000 0.023779
1.534000 0.023606
1.535000 0.023437
1.536000 0.023284
1.537000 0.023155
1.538000 0.023058
1.539000 0.022997
1.540000 0.022970
1.541000 0.022970
1.542000 0.022977
1.543000 0.022972
1.544000 0.022959
1.545000 0.022939
1.546000 0.022920
1.547000 0.022905
1.548000 0.022891
1.549000 0.022878
1.550000 0.022865
1.551000 0.022850
1.552000 0.022828
1.553000 0.022795
1.554000 0.022747
1.555000 0.022727
1.556000 0.022742
1.557000 0.022797
1.558000 0.022895
1.559000 0.023039
1.560000 0.023215
1.561000 0.023391
1.562000 0.023557
1.563000 0.023708
1.564000 0.023836
1.565000 0.023935
1.566000 0.024002
1.567000 0.024036
1.568000 0.024041
1.569000 0.024025
1.570000 0.023992
1.571000 0.023944
1.572000 0.023882
1.573000 0.023807
1.574000 0.023732
1.575000 0.023657
1.576000 0.023587
1.577000 0.023527
1.578000 0.023494
1.579000 0.023491
1.580000 0.023514
1.581000 0.023559
1.582000 0.023602
1.583000 0.023631
1.584000 0.023644
1.585000 0.023643
1.586000 0.023631
1.587000 0.023617
1.588000 0.023614
1.589000 0.023611
1.590000 0.023615
1.591000 0.023637
1.592000 0.023684
1.593000 0.023757
1.594000 0.023855
1.595000 0.023971
1.596000 0.024097
1.597000 0.024217
1.598000 0.024318
1.599000 0.024387
1.600000 0.024421
1.601000 0.024423
1.602000 0.024400
1.603000 0.024361
1.604000 0.024311
1.605000 0.024255
1.606000 0.024193
1.607000 0.024127
1.608000 0.024056
1.609000 0.023998
1.610000 0.023951
1.611000 0.023915
1.612000 0.023890
1.613000 0.023875
1.614000 0.023874
1.615000 0.023879
1.616000 0.023869
1.617000 0.023844
1.618000 0.023807
1.619000 0.023760
1.620000 0.023707
1.621000 0.023651
1.622000 0.023597
1.623000 0.023548
1.624000 0.023511
1.625000 0.023500
1.626000 0.023520
1.627000 0.023569
1.628000 0.023630
1.629000 0.023695
1.630000 0.023761
1.631000 0.023819
1.632000 0.023863
1.633000 0.023891
1.634000 0.023903
1.635000 0.023897
1.636000 0.023873
1.637000 0.023827
1.638000 0.023758
1.639000 0.023668
1.640000 0.023590
1.641000 0.023525
1.642000 0.023469
1.643000 0.023423
1.644000 0.023390
1.645000 0.023374
1.646000 0.023377
1.647000 0.023395
1.648000 0.023426
1.649000 0.023462
1.650000 0.023493
1.651000 0.023512
1.652000 0.023524
1.653000 0.023530
1.654000 0.023533
1.655000 0.023534
1.656000 0.023533
1.657000 0.023528
1.658000 0.023519
1.659000 0.023506
1.660000 0.023494
1.661000 0.023488
1.662000 0.023492
1.663000 0.023508
1.664000 0.023536
1.665000 0.023574
1.666000 0.023613
1.667000 0.023644
1.668000 0.023661
1.669000 0.023662
1.670000 0.023647
1.671000 0.023623
1.672000 0.023597
1.673000 0.023576
1.674000 0.023563
1.675000 0.023562
1.676000 0.023571
1.677000 0.023590
1.678000 0.023616
1.679000 0.023623
1.680000 0.023615
1.681000 0.023601
1.682000 0.023591
1.683000 0.023590
1.684000 0.023599
1.685000 0.023615
1.686000 0.023630
1.687000 0.023635
1.688000 0.023623
1.689000 0.023597
1.690000 0.023563
1.691000 0.023544
1.692000 0.023551
1.693000 0.023538
1.694000 0.023493
1.695000 0.023421
1.696000 0.023326
1.697000 0.023212
1.698000 0.023094
1.699000 0.022977
1.700000 0.022865
1.701000 0.022764
1.702000 0.022676
1.703000 0.022603
1.704000 0.022546
1.705000 0.022507
1.706000 0.022484
1.707000 0.022474
1.708000 0.022471
1.709000 0.022471
1.710000 0.022465
1.711000 0.022449
1.712000 0.022420
1.713000 0.022380
1.714000 0.022331
1.715000 0.022274
1.716000 0.022209
1.717000 0.022136
1.718000 0.022058
1.719000 0.022006
1.720000 0.021984
1.721000 0.021990
1.722000 0.022019
1.723000 0.022044
1.724000 0.022058
1.725000 0.022065
1.726000 0.022071
1.727000 0.022069
1.728000 0.022048
1.729000 0.022012
1.730000 0.021960
1.731000 0.021889
1.732000 0.021797
1.733000 0.021686
1.734000 0.021561
1.735000 0.021433
1.736000 0.021318
1.737000 0.021224
1.738000 0.021157
1.739000 0.021119
1.740000 0.021108
1.741000 0.021122
1.742000 0.021159
1.743000 0.021201
1.744000 0.021223
1.745000 0.021233
1.746000 0.021236
1.747000 0.021239
1.748000 0.021247
1.749000 0.021260
1.750000 0.021251
1.751000 0.021219
1.752000 0.021165
1.753000 0.021092
1.754000 0.021003
1.755000 0.020902
1.756000 0.020791
1.757000 0.020670
1.758000 0.020540
1.759000 0.020403
1.760000 0.020269
1.761000 0.020145
1.762000 0.020028
1.763000 0.019918
1.764000 0.019815
1.765000 0.019722
1.766000 0.019648
1.767000 0.019595
1.768000 0.019565
1.769000 0.019556
1.770000 0.019567
1.771000 0.019594
1.772000 0.019633
1.773000 0.019675
1.774000 0.019717
1.775000 0.019756
1.776000 0.019792
1.777000 0.019822
1.778000 0.019847
1.779000 0.019866
1.780000 0.019878
1.781000 0.019882
1.782000 0.019881
1.783000 0.019875
1.784000 0.019866
1.785000 0.019857
1.786000 0.019850
1.787000 0.019852
1.788000 0.019846
1.789000 0.019832
1.790000 0.019813
1.791000 0.019790
1.792000 0.019762
1.793000 0.019733
1.794000 0.019709
1.795000 0.019693
1.796000 0.019688
1.797000 0.019690
1.798000 0.019691
1.799000 0.019680
1.800000 0.019650
1.801000 0.019608
1.802000 0.019551
1.803000 0.019477
1.804000 0.019382
1.805000 0.019265
1.806000 0.019126
1.807000 0.018971
1.808000 0.018804
1.809000 0.018631
1.810000 0.018456
1.811000 0.018285
1.812000 0.018122
1.813000 0.017971
1.814000 0.017837
1.815000 0.017724
1.816000 0.017632
1.817000 0.017564
1.818000 0.017517
1.819000 0.017486
1.820000 0.017478
1.821000 0.017493
1.822000 0.017502
1.823000 0.017506
1.824000 0.017504
1.825000 0.017496
1.826000 0.017482
1.827000 0.017462
1.828000 0.017438
1.829000 0.017415
1.830000 0.017400
1.831000 0.017398
1.832000 0.017367
1.833000 0.017313
1.834000 0.017237
1.835000 0.017145
1.836000 0.017039
1.837000 0.016928
1.838000 0.016819
1.839000 0.016720
1.840000 0.016636
1.841000 0.016566
1.842000 0.016508
1.843000 0.016461
1.844000 0.016423
1.845000 0.016396
1.846000 0.016394
1.847000 0.016387
1.848000 0.016361
1.849000 0.016316
1.850000 0.016253
1.851000 0.016176
1.852000 0.016096
1.853000 0.016018
1.854000 0.015948
1.855000 0.015890
1.856000 0.015850
1.857000 0.015834
1.858000 0.015844
1.859000 0.015823
1.860000 0.015775
1.861000 0.015708
1.862000 0.015630
1.863000 0.015548
1.864000 0.015462
1.865000 0.015371
1.866000 0.015276
1.867000 0.015176
1.868000 0.015073
1.869000 0.014962
1.870000 0.014840
1.871000 0.014705
1.872000 0.014561
1.873000 0.014413
1.874000 0.014268
1.875000 0.014151
1.876000 0.014059
1.877000 0.013988
1.878000 0.013928
1.879000 0.013872
1.880000 0.013815
1.881000 0.013760
1.882000 0.013715
1.883000 0.013679
1.884000 0.013656
1.885000 0.013646
1.886000 0.013647
1.887000 0.013658
1.888000 0.013679
1.889000 0.013706
1.890000 0.013730
1.891000 0.013740
1.892000 0.013726
1.893000 0.013685
1.894000 0.013634
1.895000 0.013591
1.896000 0.013548
1.897000 0.013501
1.898000 0.013448
1.899000 0.013388
1.900000 0.013318
1.901000 0.013250
1.902000 0.013194
1.903000 0.013145
1.904000 0.013100
1.905000 0.013055
1.906000 0.013009
1.907000 0.012961
1.908000 0.012913
1.909000 0.012866
1.910000 0.012823
1.911000 0.012788
1.912000 0.012760
1.913000 0.012735
1.914000 0.012709
1.915000 0.012680
1.916000 0.012646
1.917000 0.012609
1.918000 0.012573
1.919000 0.012543
1.920000 0.012521
1.921000 0.012509
1.922000 0.012504
1.923000 0.012505
1.924000 0.012510
1.925000 0.012517
1.926000 0.012526
1.927000 0.012540
1.928000 0.012558
1.929000 0.012582
1.930000 0.012612
1.931000 0.012648
1.932000 0.012686
1.933000 0.012723
1.934000 0.012754
1.935000 0.012774
1.936000 0.012778
1.937000 0.012785
1.938000 0.012805
1.939000 0.012824
1.940000 0.012837
1.941000 0.012840
1.942000 0.012832
1.943000 0.012831
1.944000 0.012845
1.945000 0.012872
1.946000 0.012903
1.947000 0.012930
1.948000 0.012951
1.949000 0.012964
1.950000 0.012971
1.951000 0.012976
1.952000 0.012990
1.953000 0.013021
1.954000 0.013076
1.955000 0.013111
1.956000 0.013116
1.957000 0.013089
1.958000 0.013029
1.959000 0.012942
1.960000 0.012835
1.961000 0.012715
1.962000 0.012595
1.963000 0.012486
1.964000 0.012397
1.965000 0.012335
1.966000 0.012303
1.967000 0.012298
1.968000 0.012315
1.969000 0.012342
1.970000 0.012370
1.971000 0.012392
1.972000 0.012402
1.973000 0.012401
1.974000 0.012404
1.975000 0.012405
1.976000 0.012401
1.977000 0.012405
1.978000 0.012404
1.979000 0.012396
1.980000 0.012380
1.981000 0.012358
1.982000 0.012336
1.983000 0.012323
1.984000 0.012321
1.985000 0.012330
1.986000 0.012350
1.987000 0.012377
1.988000 0.012405
1.989000 0.012432
1.990000 0.012442
1.991000 0.012423
1.992000 0.012369
1.993000 0.012281
1.994000 0.012165
1.995000 0.012047
1.996000 0.011928
1.997000 0.011814
1.998000 0.011703
1.999000 0.011597
2.000000 0.011495
2.001000 0.011399
2.002000 0.011322
2.003000 0.011269
2.004000 0.011240
2.005000 0.011230
2.006000 0.011236
2.007000 0.011252
2.008000 0.011273
2.009000 0.011283
2.010000 0.011284
2.011000 0.011278
2.012000 0.011269
2.013000 0.011261
2.014000 0.011256
2.015000 0.011256
2.016000 0.011260
2.017000 0.011269
2.018000 0.011280
2.019000 0.011293
2.020000 0.011304
2.021000 0.011311
2.022000 0.011313
2.023000 0.011313
2.024000 0.011313
2.025000 0.011307
2.026000 0.011294
2.027000 0.011274
2.028000 0.011249
2.029000 0.011221
2.030000 0.011193
2.031000 0.011166
2.032000 0.011141
2.033000 0.011118
2.034000 0.011095
2.035000 0.011073
2.036000 0.011053
2.037000 0.011037
2.038000 0.011032
2.039000 0.011040
2.040000 0.011030
2.041000 0.011009
2.042000 0.010983
2.043000 0.010959
2.044000 0.010938
2.045000 0.010920
2.046000 0.010905
2.047000 0.010891
2.048000 0.010879
2.049000 0.010871
2.050000 0.010869
2.051000 0.010870
2.052000 0.010874
2.053000 0.010876
2.054000 0.010873
2.055000 0.010879
2.056000 0.010898
2.057000 0.010924
2.058000 0.010954
2.059000 0.010986
2.060000 0.011011
2.061000 0.011023
2.062000 0.011016
2.063000 0.010983
2.064000 0.010921
2.065000 0.010830
2.066000 0.010712
2.067000 0.010594
2.068000 0.010496
2.069000 0.010428
2.070000 0.010394
2.071000 0.010392
2.072000 0.010418
2.073000 0.010466
2.074000 0.010530
2.075000 0.010609
2.076000 0.010702
2.077000 0.010813
2.078000 0.010947
2.079000 0.011108
2.080000 0.011290
2.081000 0.011484
2.082000 0.011674
2.083000 0.011850
2.084000 0.012002
2.085000 0.012130
2.086000 0.012239
2.087000 0.012333
2.088000 0.012420
2.089000 0.012504
2.090000 0.012588
2.091000 0.012662
2.092000 0.012722
2.093000 0.012769
2.094000 0.012800
2.095000 0.012817
2.096000 0.012818
2.097000 0.012829
2.098000 0.012854
2.099000 0.012887
2.100000 0.012925
2.101000 0.012963
2.102000 0.012997
2.103000 0.013025
2.104000 0.013044
2.105000 0.013051
2.106000 0.013045
2.107000 0.013028
2.108000 0.013001
2.109000 0.012967
2.110000 0.012930
2.111000 0.012896
2.112000 0.012867
2.113000 0.012848
2.114000 0.012844
2.115000 0.012863
2.116000 0.012907
2.117000 0.012977
2.118000 0.013067
2.119000 0.013143
2.120000 0.013202
2.121000 0.013245
2.122000 0.013275
2.123000 0.013299
2.124000 0.013321
2.125000 0.013347
2.126000 0.013378
2.127000 0.013416
2.128000 0.013455
2.129000 0.013485
2.130000 0.013505
2.131000 0.013514
2.132000 0.013511
2.133000 0.013499
2.134000 0.013480
2.135000 0.013458
2.136000 0.013436
2.137000 0.013419
2.138000 0.013403
2.139000 0.013384
2.140000 0.013358
2.141000 0.013325
2.142000 0.013282
2.143000 0.013239
2.144000 0.013214
2.145000 0.013209
2.146000 0.013225
2.147000 0.013263
2.148000 0.013320
2.149000 0.013394
2.150000 0.013482
2.151000 0.013578
2.152000 0.013682
2.153000 0.013792
2.154000 0.013908
2.155000 0.014026
2.156000 0.014145
2.157000 0.014260
2.158000 0.014367
2.159000 0.014465
2.160000 0.014542
2.161000 0.014594
2.162000 0.014628
2.163000 0.014651
2.164000 0.014668
2.165000 0.014679
2.166000 0.014681
2.167000 0.014675
2.168000 0.014661
2.169000 0.014643
2.170000 0.014619
2.171000 0.014592
2.172000 0.014563
2.173000 0.014537
2.174000 0.014519
2.175000 0.014515
2.176000 0.014529
2.177000 0.014566
2.178000 0.014625
2.179000 0.014702
2.180000 0.014793
2.181000 0.014893
2.182000 0.014994
2.183000 0.015089
2.184000 0.015177
2.185000 0.015253
2.186000 0.015318
2.187000 0.015361
2.188000 0.015386
2.189000 0.015392
2.190000 0.015384
2.191000 0.015366
2.192000 0.015346
2.193000 0.015330
2.194000 0.015320
2.195000 0.015312
2.196000 0.015305
2.197000 0.015298
2.198000 0.015292
2.199000 0.015292
2.200000 0.015296
2.201000 0.015289
2.202000 0.015273
2.203000 0.015256
2.204000 0.015243
2.205000 0.015238
2.206000 0.015245
2.207000 0.015265
2.208000 0.015294
2.209000 0.015322
2.210000 0.015342
2.211000 0.015350
2.212000 0.015345
2.213000 0.015327
2.214000 0.015332
2.215000 0.015359
2.216000 0.015408
2.217000 0.015471
2.218000 0.015546
2.219000 0.015629
2.220000 0.015710
2.221000 0.015782
2.222000 0.015841
2.223000 0.015884
2.224000 0.015908
2.225000 0.015915
2.226000 0.015910
2.227000 0.015896
2.228000 0.015881
2.229000 0.015870
2.230000 0.015867
2.231000 0.015870
2.232000 0.015883
2.233000 0.015906
2.234000 0.015937
2.235000 0.015976
2.236000 0.016019
2.237000 0.016064
2.238000 0.016107
2.239000 0.016146
2.240000 0.016181
2.241000 0.016216
2.242000 0.016255
2.243000 0.016306
2.244000 0.016372
2.245000 0.016457
2.246000 0.016547
2.247000 0.016630
2.248000 0.016710
2.249000 0.016791
2.250000 0.016873
2.251000 0.016955
2.252000 0.017031
2.253000 0.017097
2.254000 0.017150
2.255000 0.017188
2.256000 0.017206
2.257000 0.017200
2.258000 0.017204
2.259000 0.017223
2.260000 0.017249
2.261000 0.017276
2.262000 0.017297
2.263000 0.017309
2.264000 0.017306
2.265000 0.017291
2.266000 0.017263
2.267000 0.017224
2.268000 0.017175
2.269000 0.017139
2.270000 0.017130
2.271000 0.017151
2.272000 0.017205
2.273000 0.017291
2.274000 0.017403
2.275000 0.017509
2.276000 0.017601
2.277000 0.017676
2.278000 0.017733
2.279000 0.017774
2.280000 0.017801
2.281000 0.017808
2.282000 0.017794
2.283000 0.017772
2.284000 0.017739
2.285000 0.017693
2.286000 0.017637
2.287000 0.017580
2.288000 0.017527
2.289000 0.017483
2.290000 0.017457
2.291000 0.017455
2.292000 0.017482
2.293000 0.017538
2.294000 0.017606
2.295000 0.017666
2.296000 0.017720
2.297000 0.017769
2.298000 0.017813
2.299000 0.017854
2.300000 0.017897
2.301000 0.017930
2.302000 0.017948
2.303000 0.017955
2.304000 0.017954
2.305000 0.017949
2.306000 0.017941
2.307000 0.017931
2.308000 0.017927
2.309000 0.017927
2.310000 0.017925
2.311000 0.017916
2.312000 0.017897
2.313000 0.017870
2.314000 0.017837
2.315000 0.017803
2.316000 0.017769
2.317000 0.017750
2.318000 0.017745
2.319000 0.017750
2.320000 0.017763
2.321000 0.017781
2.322000 0.017799
2.323000 0.017816
2.324000 0.017829
2.325000 0.017832
2.326000 0.017822
2.327000 0.017797
2.328000 0.017761
2.329000 0.017714
2.330000 0.017661
2.331000 0.017608
2.332000 0.017565
2.333000 0.017538
2.334000 0.017530
2.335000 0.017547
2.336000 0.017589
2.337000 0.017636
2.338000 0.017672
2.339000 0.017703
2.340000 0.017731
2.341000 0.017759
2.342000 0.017789
2.343000 0.017805
2.344000 0.017800
2.345000 0.017781
2.346000 0.017751
2.347000 0.017713
2.348000 0.017681
2.349000 0.017655
2.350000 0.017636
2.351000 0.017622
2.352000 0.017608
2.353000 0.017588
2.354000 0.017557
2.355000 0.017515
2.356000 0.017466
2.357000 0.017414
2.358000 0.017360
2.359000 0.017302
2.360000 0.017240
2.361000 0.017170
2.362000 0.017094
2.363000 0.017030
2.364000 0.016984
2.365000 0.016958
2.366000 0.016950
2.367000 0.016956
2.368000 0.016972
2.369000 0.016999
2.370000 0.017042
2.371000 0.017107
2.372000 0.017200
2.373000 0.017319
2.374000 0.017438
2.375000 0.017563
2.376000 0.017692
2.377000 0.017806
2.378000 0.017894
2.379000 0.017955
2.380000 0.017987
2.381000 0.017993
2.382000 0.017973
2.383000 0.017958
2.384000 0.017961
2.385000 0.017980
2.386000 0.018008
2.387000 0.018035
2.388000 0.018052
2.389000 0.018049
2.390000 0.018022
2.391000 0.018021
2.392000 0.018058
2.393000 0.018128
2.394000 0.018229
2.395000 0.018338
2.396000 0.018457
2.397000 0.018584
2.398000 0.018720
2.399000 0.018867
2.400000 0.019025
2.401000 0.019192
2.402000 0.019352
2.403000 0.019492
2.404000 0.019608
2.405000 0.019697
2.406000 0.019760
2.407000 0.019799
2.408000 0.019819
2.409000 0.019820
2.410000 0.019812
2.411000 0.019822
2.412000 0.019842
2.413000 0.019861
2.414000 0.019873
2.415000 0.019876
2.416000 0.019869
2.417000 0.019852
2.418000 0.019834
2.419000 0.019825
2.420000 0.019827
2.421000 0.019840
2.422000 0.019866
2.423000 0.019899
2.424000 0.019932
2.425000 0.019957
2.426000 0.019967
2.427000 0.019958
2.428000 0.019934
2.429000 0.019899
2.430000 0.019859
2.431000 0.019818
2.432000 0.019781
2.433000 0.019751
2.434000 0.019729
2.435000 0.019723
2.436000 0.019738
2.437000 0.019779
2.438000 0.019849
2.439000 0.019945
2.440000 0.020065
2.441000 0.020202
2.442000 0.020346
2.443000 0.020485
2.444000 0.020608
2.445000 0.020708
2.446000 0.020786
2.447000 0.020842
2.448000 0.020880
2.449000 0.020903
2.450000 0.020918
2.451000 0.020930
2.452000 0.020943
2.453000 0.020960
2.454000 0.020986
2.455000 0.021012
2.456000 0.021032
2.457000 0.021053
2.458000 0.021082
2.459000 0.021123
2.460000 0.021177
2.461000 0.021240
2.462000 0.021307
2.463000 0.021374
2.464000 0.021439
2.465000 0.021504
2.466000 0.021570
2.467000 0.021619
2.468000 0.021644
2.469000 0.021649
2.470000 0.021640
2.471000 0.021623
2.472000 0.021599
2.473000 0.021564
2.474000 0.021511
2.475000 0.021435
2.476000 0.021333
2.477000 0.021199
2.478000 0.021043
2.479000 0.020895
2.480000 0.020751
2.481000 0.020615
2.482000 0.020494
2.483000 0.020391
2.484000 0.020306
2.485000 0.020234
2.486000 0.020168
2.487000 0.020098
2.488000 0.020020
2.489000 0.019931
2.490000 0.019879
2.491000 0.019871
2.492000 0.019914
2.493000 0.020007
2.494000 0.020139
2.495000 0.020299
2.496000 0.020473
2.497000 0.020629
2.498000 0.020748
2.499000 0.020831
2.500000 0.020882
2.501000 0.020905
2.502000 0.020903
2.503000 0.020882
2.504000 0.020848
2.505000 0.020845
2.506000 0.020865
2.507000 0.020901
2.508000 0.020944
2.509000 0.020990
2.510000 0.021035
2.511000 0.021075
2.512000 0.021107
2.513000 0.021125
2.514000 0.021122
2.515000 0.021088
2.516000 0.021020
2.517000 0.020956
2.518000 0.020905
2.519000 0.020877
2.520000 0.020879
2.521000 0.020914
2.522000 0.020977
2.523000 0.021061
2.524000 0.021152
2.525000 0.021242
2.526000 0.021322
2.527000 0.021388
2.528000 0.021440
2.529000 0.021481
2.530000 0.021518
2.531000 0.021557
2.532000 0.021604
2.533000 0.021662
2.534000 0.021732
2.535000 0.021816
2.536000 0.021911
2.537000 0.022012
2.538000 0.022122
2.539000 0.022242
2.540000 0.022376
2.541000 0.022527
2.542000 0.022693
2.543000 0.022864
2.544000 0.023016
2.545000 0.023143
2.546000 0.023242
2.547000 0.023315
2.548000 0.023362
2.549000 0.023384
2.550000 0.023381
2.551000 0.023351
2.552000 0.023293
2.553000 0.023204
2.554000 0.023088
2.555000 0.022954
2.556000 0.022830
2.557000 0.022719
2.558000 0.022623
2.559000 0.022548
2.560000 0.022495
2.561000 0.022464
2.562000 0.022445
2.563000 0.022433
2.564000 0.022423
2.565000 0.022413
2.566000 0.022421
2.567000 0.022444
2.568000 0.022480
2.569000 0.022524
2.570000 0.022575
2.571000 0.022632
2.572000 0.022692
2.573000 0.022749
2.574000 0.022797
2.575000 0.022829
2.576000 0.022838
2.577000 0.022820
2.578000 0.022771
2.579000 0.022695
2.580000 0.022599
2.581000 0.022497
2.582000 0.022400
2.583000 0.022319
2.584000 0.022259
2.585000 0.022223
2.586000 0.022213
2.587000 0.022227
2.588000 0.022262
2.589000 0.022312
2.590000 0.022372
2.591000 0.022435
2.592000 0.022493
2.593000 0.022542
2.594000 0.022581
2.595000 0.022614
2.596000 0.022650
2.597000 0.022692
2.598000 0.022743
2.599000 0.022804
2.600000 0.022874
2.601000 0.022950
2.602000 0.023029
2.603000 0.023096
2.604000 0.023144
2.605000 0.023168
2.606000 0.023168
2.607000 0.023146
2.608000 0.023113
2.609000 0.023077
2.610000 0.023048
2.611000 0.023029
2.612000 0.023021
2.613000 0.023025
2.614000 0.023009
2.615000 0.022977
2.616000 0.022929
2.617000 0.022865
2.618000 0.022794
2.619000 0.022721
2.620000 0.022647
2.621000 0.022576
2.622000 0.022515
2.623000 0.022468
2.624000 0.022439
2.625000 0.022436
2.626000 0.022461
2.627000 0.022514
2.628000 0.022586
2.629000 0.022668
2.630000 0.022748
2.631000 0.022816
2.632000 0.022862
2.633000 0.022881
2.634000 0.022871
2.635000 0.022835
2.636000 0.022776
2.637000 0.022700
2.638000 0.022628
2.639000 0.022562
2.640000 0.022499
2.641000 0.022438
2.642000 0.022374
2.643000 0.022301
2.644000 0.022209
2.645000 0.022141
2.646000 0.022107
2.647000 0.022110
2.648000 0.022149
2.649000 0.022217
2.650000 0.022305
2.651000 0.022404
2.652000 0.022506
2.653000 0.022607
2.654000 0.022704
2.655000 0.022801
2.656000 0.022900
2.657000 0.023004
2.658000 0.023081
2.659000 0.023126
2.660000 0.023149
2.661000 0.023158
2.662000 0.023163
2.663000 0.023171
2.664000 0.023186
2.665000 0.023206
2.666000 0.023229
2.667000 0.023253
2.668000 0.023278
2.669000 0.023279
2.670000 0.023247
2.671000 0.023206
2.672000 0.023155
2.673000 0.023093
2.674000 0.023020
2.675000 0.022940
2.676000 0.022862
2.677000 0.022788
2.678000 0.022722
2.679000 0.022673
2.680000 0.022661
2.681000 0.022685
2.682000 0.022737
2.683000 0.022798
2.684000 0.022867
2.685000 0.022946
2.686000 0.023032
2.687000 0.023116
2.688000 0.023195
2.689000 0.023267
2.690000 0.023329
2.691000 0.023375
2.692000 0.023403
2.693000 0.023409
2.694000 0.023393
2.695000 0.023359
2.696000 0.023314
2.697000 0.023264
2.698000 0.023215
2.699000 0.023168
2.700000 0.023121
2.701000 0.023089
2.702000 0.023071
2.703000 0.023065
2.704000 0.023074
2.705000 0.023099
2.706000 0.023142
2.707000 0.023197
2.708000 0.023248
2.709000 0.023280
2.710000 0.023284
2.711000 0.023286
2.712000 0.023318
2.713000 0.023373
2.714000 0.023445
2.715000 0.023526
2.716000 0.023608
2.717000 0.023672
2.718000 0.023717
2.719000 0.023741
2.720000 0.023751
2.721000 0.023749
2.722000 0.023741
2.723000 0.023733
2.724000 0.023732
2.725000 0.023744
2.726000 0.023772
2.727000 0.023816
2.728000 0.023872
2.729000 0.023935
2.730000 0.024001
2.731000 0.024060
2.732000 0.024106
2.733000 0.024133
2.734000 0.024143
2.735000 0.024136
2.736000 0.024112
2.737000 0.024070
2.738000 0.024013
2.739000 0.023968
2.740000 0.023939
2.741000 0.023927
2.742000 0.023930
2.743000 0.023944
2.744000 0.023965
2.745000 0.023990
2.746000 0.024019
2.747000 0.024053
2.748000 0.024080
2.749000 0.024097
2.750000 0.024101
2.751000 0.024088
2.752000 0.024058
2.753000 0.024042
2.754000 0.024040
2.755000 0.024047
2.756000 0.024057
2.757000 0.024061
2.758000 0.024054
2.759000 0.024049
2.760000 0.024052
2.761000 0.024063
2.762000 0.024074
2.763000 0.024060
2.764000 0.024036
2.765000 0.024013
2.766000 0.023993
2.767000 0.023978
2.768000 0.023970
2.769000 0.023967
2.770000 0.023966
2.771000 0.023964
2.772000 0.023954
2.773000 0.023932
2.774000 0.023897
2.775000 0.023849
2.776000 0.023793
2.777000 0.023737
2.778000 0.023690
2.779000 0.023660
2.780000 0.023651
2.781000 0.023664
2.782000 0.023701
2.783000 0.023732
2.784000 0.023745
2.785000 0.023743
2.786000 0.023734
2.787000 0.023724
2.788000 0.023722
2.789000 0.023736
2.790000 0.023775
2.791000 0.023788
2.792000 0.023768
2.793000 0.023715
2.794000 0.023630
2.795000 0.023517
2.796000 0.023382
2.797000 0.023240
2.798000 0.023093
2.799000 0.022940
2.800000 0.022780
2.801000 0.022614
2.802000 0.022451
2.803000 0.022305
2.804000 0.022182
2.805000 0.022086
2.806000 0.022020
2.807000 0.021984
2.808000 0.021979
2.809000 0.022000
2.810000 0.022036
2.811000 0.022052
2.812000 0.022051
2.813000 0.022038
2.814000 0.022025
2.815000 0.022026
2.816000 0.022032
2.817000 0.022038
2.818000 0.022033
2.819000 0.022028
2.820000 0.022022
2.821000 0.022017
2.822000 0.022010
2.823000 0.021999
2.824000 0.021981
2.825000 0.021955
2.826000 0.021931
2.827000 0.021929
2.828000 0.021947
2.829000 0.021977
2.830000 0.022011
2.831000 0.022042
2.832000 0.022067
2.833000 0.022087
2.834000 0.022101
2.835000 0.022107
2.836000 0.022099
2.837000 0.022075
2.838000 0.022031
2.839000 0.021964
2.840000 0.021871
2.841000 0.021748
2.842000 0.021597
2.843000 0.021478
2.844000 0.021405
2.845000 0.021381
2.846000 0.021401
2.847000 0.021454
2.848000 0.021530
2.849000 0.021619
2.850000 0.021710
2.851000 0.021799
2.852000 0.021883
2.853000 0.021962
2.854000 0.022032
2.855000 0.022089
2.856000 0.022128
2.857000 0.022144
2.858000 0.022134
2.859000 0.022097
2.860000 0.022037
2.861000 0.021962
2.862000 0.021877
2.863000 0.021791
2.864000 0.021704
2.865000 0.021621
2.866000 0.021556
2.867000 0.021507
2.868000 0.021469
2.869000 0.021431
2.870000 0.021388
2.871000 0.021333
2.872000 0.021268
2.873000 0.021200
2.874000 0.021139
2.875000 0.021090
2.876000 0.021057
2.877000 0.021045
2.878000 0.021039
2.879000 0.021010
2.880000 0.020963
2.881000 0.020900
2.882000 0.020827
2.883000 0.020750
2.884000 0.020678
2.885000 0.020613
2.886000 0.020558
2.887000 0.020515
2.888000 0.020500
2.889000 0.020511
2.890000 0.020498
2.891000 0.020452
2.892000 0.020367
2.893000 0.020244
2.894000 0.020092
2.895000 0.019925
2.896000 0.019755
2.897000 0.019591
2.898000 0.019448
2.899000 0.019337
2.900000 0.019259
2.901000 0.019214
2.902000 0.019203
2.903000 0.019225
2.904000 0.019278
2.905000 0.019315
2.906000 0.019341
2.907000 0.019359
2.908000 0.019369
2.909000 0.019368
2.910000 0.019354
2.911000 0.019330
2.912000 0.019300
2.913000 0.019269
2.914000 0.019246
2.915000 0.019236
2.916000 0.019246
2.917000 0.019243
2.918000 0.019222
2.919000 0.019183
2.920000 0.019122
2.921000 0.019041
2.922000 0.018945
2.923000 0.018843
2.924000 0.018746
2.925000 0.018662
2.926000 0.018596
2.927000 0.018549
2.928000 0.018521
2.929000 0.018509
2.930000 0.018505
2.931000 0.018502
2.932000 0.018492
2.933000 0.018463
2.934000 0.018404
2.935000 0.018306
2.936000 0.018212
2.937000 0.018126
2.938000 0.018038
2.939000 0.017940
2.940000 0.017826
2.941000 0.017694
2.942000 0.017548
2.943000 0.017392
2.944000 0.017234
2.945000 0.017081
2.946000 0.016938
2.947000 0.016806
2.948000 0.016684
2.949000 0.016572
2.950000 0.016481
2.951000 0.016414
2.952000 0.016374
2.953000 0.016360
2.954000 0.016369
2.955000 0.016390
2.956000 0.016398
2.957000 0.016396
2.958000 0.016386
2.959000 0.016373
2.960000 0.016357
2.961000 0.016346
2.962000 0.016343
2.963000 0.016353
2.964000 0.016374
2.965000 0.016403
2.966000 0.016419
2.967000 0.016422
2.968000 0.016411
2.969000 0.016392
2.970000 0.016367
2.971000 0.016341
2.972000 0.016312
2.973000 0.016280
2.974000 0.016246
2.975000 0.016210
2.976000 0.016177
2.977000 0.016151
2.978000 0.016136
2.979000 0.016134
2.980000 0.016138
2.981000 0.016136
2.982000 0.016119
2.983000 0.016087
2.984000 0.016059
2.985000 0.016030
2.986000 0.015989
2.987000 0.015931
2.988000 0.015870
2.989000 0.015818
2.990000 0.015781
2.991000 0.015759
2.992000 0.015754
2.993000 0.015764
2.994000 0.015784
2.995000 0.015806
2.996000 0.015823
2.997000 0.015833
2.998000 0.015836
2.999000 0.015831
3.000000 0.015821
3.001000 0.015809
3.002000 0.015799
3.003000 0.015794
3.004000 0.015795
3.005000 0.015798
3.006000 0.015796
3.007000 0.015789
3.008000 0.015778
3.009000 0.015771
3.010000 0.015770
3.011000 0.015783
3.012000 0.015811
3.013000 0.015857
3.014000 0.015917
3.015000 0.015978
3.016000 0.016033
3.017000 0.016075
3.018000 0.016089
3.019000 0.016086
3.020000 0.016105
3.021000 0.016140
3.022000 0.016178
3.023000 0.016202
3.024000 0.016203
3.025000 0.016172
3.026000 0.016117
3.027000 0.016068
3.028000 0.016025
3.029000 0.015993
3.030000 0.015972
3.031000 0.015966
3.032000 0.015972
3.033000 0.015993
3.034000 0.016029
3.035000 0.016078
3.036000 0.016138
3.037000 0.016200
3.038000 0.016240
3.039000 0.016255
3.040000 0.016246
3.041000 0.016219
3.042000 0.016204
3.043000 0.016198
3.044000 0.016205
3.045000 0.016178
3.046000 0.016124
3.047000 0.016040
3.048000 0.015926
3.049000 0.015792
3.050000 0.015647
3.051000 0.015501
3.052000 0.015362
3.053000 0.015237
3.054000 0.015130
3.055000 0.015044
3.056000 0.014979
3.057000 0.014934
3.058000 0.014907
3.059000 0.014893
3.060000 0.014886
3.061000 0.014879
3.062000 0.014865
3.063000 0.014840
3.064000 0.014802
3.065000 0.014757
3.066000 0.014729
3.067000 0.014716
3.068000 0.014712
3.069000 0.014716
3.070000 0.014725
3.071000 0.014713
3.072000 0.014689
3.073000 0.014662
3.074000 0.014641
3.075000 0.014635
3.076000 0.014650
3.077000 0.014690
3.078000 0.014756
3.079000 0.014835
3.080000 0.014897
3.081000 0.014929
3.082000 0.014925
3.083000 0.014885
3.084000 0.014814
3.085000 0.014743
3.086000 0.014670
3.087000 0.014586
3.088000 0.014496
3.089000 0.014416
3.090000 0.014347
3.091000 0.014289
3.092000 0.014245
3.093000 0.014218
3.094000 0.014208
3.095000 0.014215
3.096000 0.014233
3.097000 0.014257
3.098000 0.014282
3.099000 0.014303
3.100000 0.014316
3.101000 0.014310
3.102000 0.014311
3.103000 0.014314
3.104000 0.014313
3.105000 0.014303
3.106000 0.014283
3.107000 0.014254
3.108000 0.014226
3.109000 0.014207
3.110000 0.014205
3.111000 0.014196
3.112000 0.014158
3.113000 0.014107
3.114000 0.014050
3.115000 0.013995
3.116000 0.013948
3.117000 0.013914
3.118000 0.013899
3.119000 0.013902
3.120000 0.013921
3.121000 0.013951
3.122000 0.013992
3.123000 0.014037
3.124000 0.014082
3.125000 0.014120
3.126000 0.014144
3.127000 0.014150
3.128000 0.014133
3.129000 0.014094
3.130000 0.014034
3.131000 0.013967
3.132000 0.013910
3.133000 0.013862
3.134000 0.013821
3.135000 0.013788
3.136000 0.013763
3.137000 0.013754
3.138000 0.013766
3.139000 0.013777
3.140000 0.013785
3.141000 0.013786
3.142000 0.013781
3.143000 0.013769
3.144000 0.013753
3.145000 0.013734
3.146000 0.013716
3.147000 0.013701
3.148000 0.013694
3.149000 0.013696
3.150000 0.013709
3.151000 0.013736
3.152000 0.013780
3.153000 0.013818
3.154000 0.013857
3.155000 0.013903
3.156000 0.013962
3.157000 0.014038
3.158000 0.014131
3.159000 0.014226
3.160000 0.014313
3.161000 0.014391
3.162000 0.014463
3.163000 0.014531
3.164000 0.014574
3.165000 0.014579
3.166000 0.014542
3.167000 0.014478
3.168000 0.014424
3.169000 0.014381
3.170000 0.014347
3.171000 0.014316
3.172000 0.014287
3.173000 0.014259
3.174000 0.014232
3.175000 0.014206
3.176000 0.014184
3.177000 0.014162
3.178000 0.014139
3.179000 0.014113
3.180000 0.014082
3.181000 0.014046
3.182000 0.014001
3.183000 0.013968
3.184000 0.013950
3.185000 0.013946
3.186000 0.013957
3.187000 0.013978
3.188000 0.014003
3.189000 0.014027
3.190000 0.014045
3.191000 0.014058
3.192000 0.014073
3.193000 0.014096
3.194000 0.014128
3.195000 0.014171
3.196000 0.014223
3.197000 0.014270
3.198000 0.014316
3.199000 0.014361
3.200000 0.014407
3.201000 0.014453
3.202000 0.014496
3.203000 0.014524
3.204000 0.014539
3.205000 0.014540
3.206000 0.014528
3.207000 0.014502
3.208000 0.014467
3.209000 0.014434
3.210000 0.014407
3.211000 0.014390
3.212000 0.014388
3.213000 0.014403
3.214000 0.014427
3.215000 0.014443
3.216000 0.014449
3.217000 0.014442
3.218000 0.014470
3.219000 0.014523
3.220000 0.014604
3.221000 0.014709
3.222000 0.014833
3.223000 0.014974
3.224000 0.015126
3.225000 0.015288
3.226000 0.015446
3.227000 0.015581
3.228000 0.015689
3.229000 0.015775
3.230000 0.015839
3.231000 0.015886
3.232000 0.015920
3.233000 0.015942
3.234000 0.015951
3.235000 0.015951
3.236000 0.015941
3.237000 0.015921
3.238000 0.015888
3.239000 0.015856
3.240000 0.015837
3.241000 0.015837
3.242000 0.015864
3.243000 0.015866
3.244000 0.015837
3.245000 0.015776
3.246000 0.015686
3.247000 0.015572
3.248000 0.015437
3.249000 0.015303
3.250000 0.015196
3.251000 0.015123
3.252000 0.015084
3.253000 0.015079
3.254000 0.015104
3.255000 0.015151
3.256000 0.015211
3.257000 0.015279
3.258000 0.015349
3.259000 0.015416
3.260000 0.015478
3.261000 0.015535
3.262000 0.015592
3.263000 0.015654
3.264000 0.015726
3.265000 0.015809
3.266000 0.015892
3.267000 0.015974
3.268000 0.016054
3.269000 0.016131
3.270000 0.016199
3.271000 0.016252
3.272000 0.016280
3.273000 0.016281
3.274000 0.016282
3.275000 0.016314
3.276000 0.016369
3.277000 0.016442
3.278000 0.016526
3.279000 0.016616
3.280000 0.016708
3.281000 0.016799
3.282000 0.016889
3.283000 0.016977
3.284000 0.017066
3.285000 0.017160
3.286000 0.017262
3.287000 0.017368
3.288000 0.017459
3.289000 0.017528
3.290000 0.017573
3.291000 0.017589
3.292000 0.017571
3.293000 0.017564
3.294000 0.017588
3.295000 0.017638
3.296000 0.017709
3.297000 0.017799
3.298000 0.017898
3.299000 0.018003
3.300000 0.018116
3.301000 0.018240
3.302000 0.018379
3.303000 0.018532
3.304000 0.018697
3.305000 0.018868
3.306000 0.019039
3.307000 0.019207
3.308000 0.019368
3.309000 0.019521
3.310000 0.019664
3.311000 0.019797
3.312000 0.019916
3.313000 0.020019
3.314000 0.020107
3.315000 0.020177
3.316000 0.020228
3.317000 0.020258
3.318000 0.020269
3.319000 0.020266
3.320000 0.020250
3.321000 0.020224
3.322000 0.020191
3.323000 0.020156
3.324000 0.020119
3.325000 0.020084
3.326000 0.020054
3.327000 0.020034
3.328000 0.020025
3.329000 0.020026
3.330000 0.020036
3.331000 0.020054
3.332000 0.020084
3.333000 0.020127
3.334000 0.020189
3.335000 0.020266
3.336000 0.020309
3.337000 0.020310
3.338000 0.020278
3.339000 0.020222
3.340000 0.020199
3.341000 0.020209
3.342000 0.020243
3.343000 0.020295
3.344000 0.020353
3.345000 0.020409
3.346000 0.020455
3.347000 0.020487
3.348000 0.020505
3.349000 0.020509
3.350000 0.020517
3.351000 0.020539
3.352000 0.020573
3.353000 0.020612
3.354000 0.020653
3.355000 0.020687
3.356000 0.020709
3.357000 0.020717
3.358000 0.020707
3.359000 0.020714
3.360000 0.020738
3.361000 0.020775
3.362000 0.020822
3.363000 0.020877
3.364000 0.020940
3.365000 0.021009
3.366000 0.021082
3.367000 0.021157
3.368000 0.021232
3.369000 0.021302
3.370000 0.021366
3.371000 0.021419
3.372000 0.021462
3.373000 0.021498
3.374000 0.021529
3.375000 0.021558
3.376000 0.021587
3.377000 0.021616
3.378000 0.021645
3.379000 0.021673
3.380000 0.021702
3.381000 0.021731
3.382000 0.021764
3.383000 0.021795
3.384000 0.021802
3.385000 0.021790
3.386000 0.021786
3.387000 0.021808
3.388000 0.021841
3.389000 0.021870
3.390000 0.021890
3.391000 0.021895
3.392000 0.021880
3.393000 0.021845
3.394000 0.021793
3.395000 0.021737
3.396000 0.021692
3.397000 0.021652
3.398000 0.021613
3.399000 0.021571
3.400000 0.021524
3.401000 0.021468
3.402000 0.021403
3.403000 0.021338
3.404000 0.021286
3.405000 0.021248
3.406000 0.021220
3.407000 0.021210
3.408000 0.021227
3.409000 0.021265
3.410000 0.021313
3.411000 0.021365
3.412000 0.021418
3.413000 0.021470
3.414000 0.021525
3.415000 0.021586
3.416000 0.021659
3.417000 0.021747
3.418000 0.021850
3.419000 0.021951
3.420000 0.022003
3.421000 0.022009
3.422000 0.021983
3.423000 0.021941
3.424000 0.021914
3.425000 0.021915
3.426000 0.021926
3.427000 0.021911
3.428000 0.021882
3.429000 0.021863
3.430000 0.021866
3.431000 0.021898
3.432000 0.021965
3.433000 0.022060
3.434000 0.022171
3.435000 0.022282
3.436000 0.022378
3.437000 0.022455
3.438000 0.022520
3.439000 0.022582
3.440000 0.022643
3.441000 0.022698
3.442000 0.022722
3.443000 0.022725
3.444000 0.022722
3.445000 0.022741
3.446000 0.022762
3.447000 0.022783
3.448000 0.022798
3.449000 0.022805
3.450000 0.022803
3.451000 0.022790
3.452000 0.022766
3.453000 0.022729
3.454000 0.022681
3.455000 0.022639
3.456000 0.022605
3.457000 0.022582
3.458000 0.022573
3.459000 0.022583
3.460000 0.022612
3.461000 0.022655
3.462000 0.022704
3.463000 0.022753
3.464000 0.022802
3.465000 0.022849
3.466000 0.022878
3.467000 0.022904
3.468000 0.022939
3.469000 0.022994
3.470000 0.023068
3.471000 0.023162
3.472000 0.023266
3.473000 0.023371
3.474000 0.023472
3.475000 0.023561
3.476000 0.023633
3.477000 0.023681
3.478000 0.023704
3.479000 0.023703
3.480000 0.023688
3.481000 0.023670
3.482000 0.023660
3.483000 0.023665
3.484000 0.023686
3.485000 0.023699
3.486000 0.023707
3.487000 0.023724
3.488000 0.023749
3.489000 0.023771
3.490000 0.023795
3.491000 0.023828
3.492000 0.023874
3.493000 0.023935
3.494000 0.024008
3.495000 0.024083
3.496000 0.024153
3.497000 0.024208
3.498000 0.024242
3.499000 0.024253
3.500000 0.024241
3.501000 0.024268
3.502000 0.024303
3.503000 0.024341
3.504000 0.024378
3.505000 0.024410
3.506000 0.024428
3.507000 0.024427
3.508000 0.024401
3.509000 0.024415
3.510000 0.024474
3.511000 0.024575
3.512000 0.024702
3.513000 0.024830
3.514000 0.024943
3.515000 0.025032
3.516000 0.025095
3.517000 0.025132
3.518000 0.025147
3.519000 0.025143
3.520000 0.025124
3.521000 0.025094
3.522000 0.025052
3.523000 0.025000
3.524000 0.024938
3.525000 0.024869
3.526000 0.024803
3.527000 0.024751
3.528000 0.024715
3.529000 0.024693
3.530000 0.024686
3.531000 0.024697
3.532000 0.024721
3.533000 0.024769
3.534000 0.024849
3.535000 0.024961
3.536000 0.025102
3.537000 0.025253
3.538000 0.025396
3.539000 0.025514
3.540000 0.025598
3.541000 0.025647
3.542000 0.025664
3.543000 0.025656
3.544000 0.025641
3.545000 0.025648
3.546000 0.025668
3.547000 0.025691
3.548000 0.025714
3.549000 0.025735
3.550000 0.025757
3.551000 0.025781
3.552000 0.025807
3.553000 0.025828
3.554000 0.025843
3.555000 0.025853
3.556000 0.025859
3.557000 0.025860
3.558000 0.025851
3.559000 0.025829
3.560000 0.025789
3.561000 0.025724
3.562000 0.025648
3.563000 0.025639
3.564000 0.025708
3.565000 0.025862
3.566000 0.026096
3.567000 0.026384
3.568000 0.026676
3.569000 0.026957
3.570000 0.027219
3.571000 0.027456
3.572000 0.027658
3.573000 0.027820
3.574000 0.027939
3.575000 0.028021
3.576000 0.028068
3.577000 0.028084
3.578000 0.028071
3.579000 0.028062
3.580000 0.028092
3.581000 0.028152
3.582000 0.028235
3.583000 0.028313
3.584000 0.028376
3.585000 0.028413
3.586000 0.028415
3.587000 0.028373
3.588000 0.028314
3.589000 0.028287
3.590000 0.028280
3.591000 0.028276
3.592000 0.028257
3.593000 0.028218
3.594000 0.028175
3.595000 0.028141
3.596000 0.028103
3.597000 0.028049
3.598000 0.028023
3.599000 0.028039
3.600000 0.028110
3.601000 0.028245
3.602000 0.028437
3.603000 0.028671
3.604000 0.028928
3.605000 0.029187
3.606000 0.029428
3.607000 0.029644
3.608000 0.029832
3.609000 0.029986
3.610000 0.030110
3.611000 0.030205
3.612000 0.030274
3.613000 0.030315
3.614000 0.030324
3.615000 0.030306
3.616000 0.030298
3.617000 0.030326
3.618000 0.030335
3.619000 0.030303
3.620000 0.030222
3.621000 0.030101
3.622000 0.029980
3.623000 0.029865
3.624000 0.029760
3.625000 0.029663
3.626000 0.029573
3.627000 0.029487
3.628000 0.029407
3.629000 0.029337
3.630000 0.029289
3.631000 0.029269
3.632000 0.029282
3.633000 0.029333
3.634000 0.029426
3.635000 0.029557
3.636000 0.029716
3.637000 0.029888
3.638000 0.030062
3.639000 0.030218
3.640000 0.030348
3.641000 0.030459
3.642000 0.030555
3.643000 0.030640
3.644000 0.030713
3.645000 0.030773
3.646000 0.030821
3.647000 0.030863
3.648000 0.030908
3.649000 0.030947
3.650000 0.030963
3.651000 0.030954
3.652000 0.030917
3.653000 0.030853
3.654000 0.030765
3.655000 0.030662
3.656000 0.030553
3.657000 0.030443
3.658000 0.030339
3.659000 0.030243
3.660000 0.030158
3.661000 0.030088
3.662000 0.030036
3.663000 0.029999
3.664000 0.029976
3.665000 0.029961
3.666000 0.029951
3.667000 0.029942
3.668000 0.029931
3.669000 0.029913
3.670000 0.029889
3.671000 0.029867
3.672000 0.029857
3.673000 0.029871
3.674000 0.029887
3.675000 0.029883
3.676000 0.029870
3.677000 0.029854
3.678000 0.029838
3.679000 0.029820
3.680000 0.029798
3.681000 0.029769
3.682000 0.029732
3.683000 0.029686
3.684000 0.029633
3.685000 0.029571
3.686000 0.029500
3.687000 0.029427
3.688000 0.029359
3.689000 0.029307
3.690000 0.029280
3.691000 0.029286
3.692000 0.029335
3.693000 0.029387
3.694000 0.029423
3.695000 0.029448
3.696000 0.029468
3.697000 0.029481
3.698000 0.029479
3.699000 0.029455
3.700000 0.029403
3.701000 0.029315
3.702000 0.029191
3.703000 0.029031
3.704000 0.028843
3.705000 0.028639
3.706000 0.028432
3.707000 0.028233
3.708000 0.028051
3.709000 0.027889
3.710000 0.027750
3.711000 0.027637
3.712000 0.027549
3.713000 0.027487
3.714000 0.027451
3.715000 0.027438
3.716000 0.027448
3.717000 0.027478
3.718000 0.027523
3.719000 0.027578
3.720000 0.027640
3.721000 0.027708
3.722000 0.027781
3.723000 0.027854
3.724000 0.027925
3.725000 0.027990
3.726000 0.028042
3.727000 0.028075
3.728000 0.028086
3.729000 0.028078
3.730000 0.028055
3.731000 0.028023
3.732000 0.027984
3.733000 0.027941
3.734000 0.027895
3.735000 0.027850
3.736000 0.027810
3.737000 0.027779
3.738000 0.027760
3.739000 0.027762
3.740000 0.027746
3.741000 0.027713
3.742000 0.027664
3.743000 0.027606
3.744000 0.027544
3.745000 0.027487
3.746000 0.027435
3.747000 0.027405
3.748000 0.027404
3.749000 0.027433
3.750000 0.027463
3.751000 0.027482
3.752000 0.027491
3.753000 0.027490
3.754000 0.027484
3.755000 0.027484
3.756000 0.027500
3.757000 0.027536
3.758000 0.027595
3.759000 0.027643
3.760000 0.027677
3.761000 0.027701
3.762000 0.027718
3.763000 0.027730
3.764000 0.027740
3.765000 0.027749
3.766000 0.027759
3.767000 0.027767
3.768000 0.027771
3.769000 0.027768
3.770000 0.027757
3.771000 0.027736
3.772000 0.027704
3.773000 0.027662
3.774000 0.027609
3.775000 0.027545
3.776000 0.027479
3.777000 0.027421
3.778000 0.027368
3.779000 0.027323
3.780000 0.027287
3.781000 0.027263
3.782000 0.027248
3.783000 0.027242
3.784000 0.027244
3.785000 0.027254
3.786000 0.027254
3.787000 0.027231
3.788000 0.027194
3.789000 0.027155
3.790000 0.027119
3.791000 0.027094
3.792000 0.027086
3.793000 0.027097
3.794000 0.027127
3.795000 0.027165
3.796000 0.027195
3.797000 0.027222
3.798000 0.027246
3.799000 0.027269
3.800000 0.027291
3.801000 0.027313
3.802000 0.027334
3.803000 0.027346
3.804000 0.027344
3.805000 0.027335
3.806000 0.027332
3.807000 0.027328
3.808000 0.027307
3.809000 0.027273
3.810000 0.027226
3.811000 0.027168
3.812000 0.027101
3.813000 0.027025
3.814000 0.026941
3.815000 0.026849
3.816000 0.026753
3.817000 0.026658
3.818000 0.026568
3.819000 0.026489
3.820000 0.026430
3.821000 0.026397
3.822000 0.026390
3.823000 0.026403
3.824000 0.026416
3.825000 0.026418
3.826000 0.026422
3.827000 0.026439
3.828000 0.026459
3.829000 0.026461
3.830000 0.026435
3.831000 0.026376
3.832000 0.026280
3.833000 0.026154
3.834000 0.026005
3.835000 0.025849
3.836000 0.025703
3.837000 0.025578
3.838000 0.025476
3.839000 0.025397
3.840000 0.025340
3.841000 0.025305
3.842000 0.025292
3.843000 0.025296
3.844000 0.025306
3.845000 0.025298
3.846000 0.025278
3.847000 0.025252
3.848000 0.025226
3.849000 0.025203
3.850000 0.025180
3.851000 0.025158
3.852000 0.025147
3.853000 0.025151
3.854000 0.025165
3.855000 0.025165
3.856000 0.025147
3.857000 0.025107
3.858000 0.025059
3.859000 0.025002
3.860000 0.024940
3.861000 0.024878
3.862000 0.024824
3.863000 0.024783
3.864000 0.024754
3.865000 0.024737
3.866000 0.024725
3.867000 0.024713
3.868000 0.024696
3.869000 0.024670
3.870000 0.024633
3.871000 0.024582
3.872000 0.024515
3.873000 0.024434
3.874000 0.024341
3.875000 0.024241
3.876000 0.024139
3.877000 0.024041
3.878000 0.023952
3.879000 0.023875
3.880000 0.023814
3.881000 0.023765
3.882000 0.023730
3.883000 0.023704
3.884000 0.023685
3.885000 0.023671
3.886000 0.023660
3.887000 0.023649
3.888000 0.023636
3.889000 0.023617
3.890000 0.023586
3.891000 0.023541
3.892000 0.023481
3.893000 0.023406
3.894000 0.023320
3.895000 0.023236
3.896000 0.023165
3.897000 0.023119
3.898000 0.023106
3.899000 0.023132
3.900000 0.023197
3.901000 0.023234
3.902000 0.023244
3.903000 0.023234
3.904000 0.023212
3.905000 0.023189
3.906000 0.023173
3.907000 0.023171
3.908000 0.023188
3.909000 0.023160
3.910000 0.023091
3.911000 0.022995
3.912000 0.022878
3.913000 0.022753
3.914000 0.022636
3.915000 0.022541
3.916000 0.022471
3.917000 0.022419
3.918000 0.022378
3.919000 0.022342
3.920000 0.022307
3.921000 0.022286
3.922000 0.022280
3.923000 0.022289
3.924000 0.022314
3.925000 0.022353
3.926000 0.022401
3.927000 0.022448
3.928000 0.022495
3.929000 0.022544
3.930000 0.022594
3.931000 0.022631
3.932000 0.022648
3.933000 0.022635
3.934000 0.022586
3.935000 0.022502
3.936000 0.022389
3.937000 0.022257
3.938000 0.022121
3.939000 0.021996
3.940000 0.021889
3.941000 0.021814
3.942000 0.021786
3.943000 0.021800
3.944000 0.021832
3.945000 0.021850
3.946000 0.021855
3.947000 0.021851
3.948000 0.021839
3.949000 0.021819
3.950000 0.021790
3.951000 0.021752
3.952000 0.021705
3.953000 0.021649
3.954000 0.021585
3.955000 0.021508
3.956000 0.021419
3.957000 0.021332
3.958000 0.021256
3.959000 0.021199
3.960000 0.021168
3.961000 0.021173
3.962000 0.021202
3.963000 0.021181
3.964000 0.021096
3.965000 0.020942
3.966000 0.020724
3.967000 0.020458
3.968000 0.020162
3.969000 0.019853
3.970000 0.019549
3.971000 0.019267
3.972000 0.019023
3.973000 0.018829
3.974000 0.018688
3.975000 0.018599
3.976000 0.018555
3.977000 0.018552
3.978000 0.018588
3.979000 0.018626
3.980000 0.018631
3.981000 0.018607
3.982000 0.018565
3.983000 0.018512
3.984000 0.018452
3.985000 0.018397
3.986000 0.018359
3.987000 0.018350
3.988000 0.018353
3.989000 0.018324
3.990000 0.018278
3.991000 0.018229
3.992000 0.018211
3.993000 0.018224
3.994000 0.018246
3.995000 0.018262
3.996000 0.018279
3.997000 0.018308
3.998000 0.018305
3.999000 0.018253
4.000000 0.018140
4.001000 0.017960
4.002000 0.017725
4.003000 0.017461
4.004000 0.017188
4.005000 0.016925
4.006000 0.016690
4.007000 0.016489
4.008000 0.016322
4.009000 0.016186
4.010000 0.016081
4.011000 0.016007
4.012000 0.015965
4.013000 0.015956
4.014000 0.015980
4.015000 0.016033
4.016000 0.016083
4.017000 0.016110
4.018000 0.016121
4.019000 0.016126
4.020000 0.016141
4.021000 0.016162
4.022000 0.016156
4.023000 0.016124
4.024000 0.016074
4.025000 0.016016
4.026000 0.015956
4.027000 0.015893
4.028000 0.015830
4.029000 0.015779
4.030000 0.015734
4.031000 0.015687
4.032000 0.015630
4.033000 0.015551
4.034000 0.015442
4.035000 0.015299
4.036000 0.015128
4.037000 0.014944
4.038000 0.014780
4.039000 0.014645
4.040000 0.014538
4.041000 0.014456
4.042000 0.014389
4.043000 0.014335
4.044000 0.014294
4.045000 0.014268
4.046000 0.014258
4.047000 0.014265
4.048000 0.014286
4.049000 0.014318
4.050000 0.014353
4.051000 0.014386
4.052000 0.014416
4.053000 0.014440
4.054000 0.014459
4.055000 0.014471
4.056000 0.014477
4.057000 0.014480
4.058000 0.014480
4.059000 0.014478
4.060000 0.014474
4.061000 0.014465
4.062000 0.014447
4.063000 0.014417
4.064000 0.014376
4.065000 0.014324
4.066000 0.014259
4.067000 0.014186
4.068000 0.014110
4.069000 0.014044
4.070000 0.013992
4.071000 0.013954
4.072000 0.013924
4.073000 0.013895
4.074000 0.013867
4.075000 0.013836
4.076000 0.013797
4.077000 0.013748
4.078000 0.013689
4.079000 0.013627
4.080000 0.013567
4.081000 0.013517
4.082000 0.013478
4.083000 0.013448
4.084000 0.013424
4.085000 0.013401
4.086000 0.013372
4.087000 0.013346
4.088000 0.013338
4.089000 0.013344
4.090000 0.013355
4.091000 0.013365
4.092000 0.013367
4.093000 0.013361
4.094000 0.013348
4.095000 0.013331
4.096000 0.013316
4.097000 0.013306
4.098000 0.013298
4.099000 0.013285
4.100000 0.013260
4.101000 0.013217
4.102000 0.013167
4.103000 0.013151
4.104000 0.013152
4.105000 0.013151
4.106000 0.013137
4.107000 0.013110
4.108000 0.013087
4.109000 0.013064
4.110000 0.013037
4.111000 0.013002
4.112000 0.012957
4.113000 0.012908
4.114000 0.012857
4.115000 0.012809
4.116000 0.012763
4.117000 0.012721
4.118000 0.012684
4.119000 0.012655
4.120000 0.012636
4.121000 0.012624
4.122000 0.012617
4.123000 0.012615
4.124000 0.012615
4.125000 0.012620
4.126000 0.012631
4.127000 0.012651
4.128000 0.012676
4.129000 0.012702
4.130000 0.012723
4.131000 0.012734
4.132000 0.012736
4.133000 0.012732
4.134000 0.012728
4.135000 0.012732
4.136000 0.012750
4.137000 0.012785
4.138000 0.012834
4.139000 0.012889
4.140000 0.012935
4.141000 0.012973
4.142000 0.013006
4.143000 0.013033
4.144000 0.013057
4.145000 0.013080
4.146000 0.013107
4.147000 0.013126
4.148000 0.013127
4.149000 0.013105
4.150000 0.013062
4.151000 0.013026
4.152000 0.012998
4.153000 0.012976
4.154000 0.012951
4.155000 0.012918
4.156000 0.012874
4.157000 0.012817
4.158000 0.012767
4.159000 0.012728
4.160000 0.012693
4.161000 0.012658
4.162000 0.012618
4.163000 0.012568
4.164000 0.012507
4.165000 0.012438
4.166000 0.012364
4.167000 0.012291
4.168000 0.012226
4.169000 0.012174
4.170000 0.012132
4.171000 0.012099
4.172000 0.012071
4.173000 0.012047
4.174000 0.012030
4.175000 0.012025
4.176000 0.012028
4.177000 0.012024
4.178000 0.012012
4.179000 0.011995
4.180000 0.011979
4.181000 0.011969
4.182000 0.011969
4.183000 0.011983
4.184000 0.012013
4.185000 0.012061
4.186000 0.012124
4.187000 0.012197
4.188000 0.012271
4.189000 0.012330
4.190000 0.012368
4.191000 0.012381
4.192000 0.012371
4.193000 0.012347
4.194000 0.012318
4.195000 0.012292
4.196000 0.012273
4.197000 0.012263
4.198000 0.012259
4.199000 0.012259
4.200000 0.012261
4.201000 0.012266
4.202000 0.012274
4.203000 0.012286
4.204000 0.012303
4.205000 0.012320
4.206000 0.012328
4.207000 0.012327
4.208000 0.012340
4.209000 0.012364
4.210000 0.012393
4.211000 0.012422
4.212000 0.012445
4.213000 0.012456
4.214000 0.012455
4.215000 0.012441
4.216000 0.012416
4.217000 0.012383
4.218000 0.012356
4.219000 0.012345
4.220000 0.012349
4.221000 0.012365
4.222000 0.012389
4.223000 0.012420
4.224000 0.012456
4.225000 0.012496
4.226000 0.012537
4.227000 0.012578
4.228000 0.012617
4.229000 0.012651
4.230000 0.012680
4.231000 0.012704
4.232000 0.012723
4.233000 0.012738
4.234000 0.012749
4.235000 0.012754
4.236000 0.012754
4.237000 0.012747
4.238000 0.012733
4.239000 0.012719
4.240000 0.012702
4.241000 0.012682
4.242000 0.012666
4.243000 0.012661
4.244000 0.012671
4.245000 0.012697
4.246000 0.012736
4.247000 0.012780
4.248000 0.012823
4.249000 0.012862
4.250000 0.012895
4.251000 0.012926
4.252000 0.012950
4.253000 0.012972
4.254000 0.013005
4.255000 0.013059
4.256000 0.013139
4.257000 0.013243
4.258000 0.013348
4.259000 0.013448
4.260000 0.013535
4.261000 0.013606
4.262000 0.013658
4.263000 0.013691
4.264000 0.013702
4.265000 0.013690
4.266000 0.013659
4.267000 0.013650
4.268000 0.013660
4.269000 0.013683
4.270000 0.013716
4.271000 0.013756
4.272000 0.013800
4.273000 0.013847
4.274000 0.013895
4.275000 0.013938
4.276000 0.013973
4.277000 0.013994
4.278000 0.013996
4.279000 0.014000
4.280000 0.014026
4.281000 0.014070
4.282000 0.014131
4.283000 0.014205
4.284000 0.014288
4.285000 0.014375
4.286000 0.014465
4.287000 0.014557
4.288000 0.014649
4.289000 0.014738
4.290000 0.014820
4.291000 0.014892
4.292000 0.014953
4.293000 0.015001
4.294000 0.015035
4.295000 0.015055
4.296000 0.015062
4.297000 0.015059
4.298000 0.015053
4.299000 0.015049
4.300000 0.015054
4.301000 0.015070
4.302000 0.015096
4.303000 0.015132
4.304000 0.015170
4.305000 0.015202
4.306000 0.015222
4.307000 0.015230
4.308000 0.015228
4.309000 0.015222
4.310000 0.015236
4.311000 0.015255
4.312000 0.015279
4.313000 0.015308
4.314000 0.015340
4.315000 0.015369
4.316000 0.015388
4.317000 0.015395
4.318000 0.015387
4.319000 0.015393
4.320000 0.015433
4.321000 0.015486
4.322000 0.015548
4.323000 0.015615
4.324000 0.015686
4.325000 0.015758
4.326000 0.015832
4.327000 0.015907
4.328000 0.015982
4.329000 0.016055
4.330000 0.016122
4.331000 0.016180
4.332000 0.016229
4.333000 0.016269
4.334000 0.016305
4.335000 0.016339
4.336000 0.016377
4.337000 0.016421
4.338000 0.016473
4.339000 0.016536
4.340000 0.016609
4.341000 0.016676
4.342000 0.016718
4.343000 0.016732
4.344000 0.016720
4.345000 0.016687
4.346000 0.016652
4.347000 0.016625
4.348000 0.016602
4.349000 0.016578
4.350000 0.016549
4.351000 0.016528
4.352000 0.016522
4.353000 0.016530
4.354000 0.016551
4.355000 0.016583
4.356000 0.016627
4.357000 0.016673
4.358000 0.016717
4.359000 0.016760
4.360000 0.016799
4.361000 0.016836
4.362000 0.016870
4.363000 0.016900
4.364000 0.016925
4.365000 0.016945
4.366000 0.016960
4.367000 0.016971
4.368000 0.016980
4.369000 0.016988
4.370000 0.016994
4.371000 0.016996
4.372000 0.016992
4.373000 0.016980
4.374000 0.016958
4.375000 0.016924
4.376000 0.016875
4.377000 0.016826
4.378000 0.016792
4.379000 0.016777
4.380000 0.016776
4.381000 0.016784
4.382000 0.016793
4.383000 0.016801
4.384000 0.016805
4.385000 0.016797
4.386000 0.016789
4.387000 0.016819
4.388000 0.016887
4.389000 0.016986
4.390000 0.017108
4.391000 0.017240
4.392000 0.017356
4.393000 0.017445
4.394000 0.017508
4.395000 0.017545
4.396000 0.017560
4.397000 0.017553
4.398000 0.017530
4.399000 0.017537
4.400000 0.017572
4.401000 0.017627
4.402000 0.017694
4.403000 0.017759
4.404000 0.017815
4.405000 0.017854
4.406000 0.017868
4.407000 0.017854
4.408000 0.017859
4.409000 0.017894
4.410000 0.017954
4.411000 0.018031
4.412000 0.018109
4.413000 0.018179
4.414000 0.018235
4.415000 0.018279
4.416000 0.018317
4.417000 0.018356
4.418000 0.018402
4.419000 0.018458
4.420000 0.018517
4.421000 0.018574
4.422000 0.018629
4.423000 0.018679
4.424000 0.018722
4.425000 0.018756
4.426000 0.018782
4.427000 0.018803
4.428000 0.018819
4.429000 0.018817
4.430000 0.018801
4.431000 0.018775
4.432000 0.018746
4.433000 0.018721
4.434000 0.018707
4.435000 0.018711
4.436000 0.018736
4.437000 0.018784
4.438000 0.018838
4.439000 0.018895
4.440000 0.018950
4.441000 0.019000
4.442000 0.019036
4.443000 0.019054
4.444000 0.019047
4.445000 0.019014
4.446000 0.018956
4.447000 0.018896
4.448000 0.018845
4.449000 0.018798
4.450000 0.018752
4.451000 0.018712
4.452000 0.018682
4.453000 0.018665
4.454000 0.018661
4.455000 0.018666
4.456000 0.018676
4.457000 0.018682
4.458000 0.018679
4.459000 0.018665
4.460000 0.018649
4.461000 0.018652
4.462000 0.018671
4.463000 0.018704
4.464000 0.018749
4.465000 0.018806
4.466000 0.018877
4.467000 0.018957
4.468000 0.019037
4.469000 0.019104
4.470000 0.019151
4.471000 0.019176
4.472000 0.019189
4.473000 0.019199
4.474000 0.019208
4.475000 0.019213
4.476000 0.019214
4.477000 0.019213
4.478000 0.019208
4.479000 0.019198
4.480000 0.019191
4.481000 0.019184
4.482000 0.019179
4.483000 0.019175
4.484000 0.019169
4.485000 0.019162
4.486000 0.019156
4.487000 0.019159
4.488000 0.019160
4.489000 0.019164
4.490000 0.019173
4.491000 0.019185
4.492000 0.019199
4.493000 0.019213
4.494000 0.019226
4.495000 0.019236
4.496000 0.019242
4.497000 0.019247
4.498000 0.019253
4.499000 0.019268
4.500000 0.019300
4.501000 0.019353
4.502000 0.019418
4.503000 0.019449
4.504000 0.019463
4.505000 0.019474
4.506000 0.019489
4.507000 0.019507
4.508000 0.019511
4.509000 0.019507
4.510000 0.019497
4.511000 0.019495
4.512000 0.019506
4.513000 0.019525
4.514000 0.019541
4.515000 0.019548
4.516000 0.019540
4.517000 0.019511
4.518000 0.019489
4.519000 0.019481
4.520000 0.019485
4.521000 0.019498
4.522000 0.019513
4.523000 0.019526
4.524000 0.019534
4.525000 0.019532
4.526000 0.019518
4.527000 0.019492
4.528000 0.019458
4.529000 0.019420
4.530000 0.019379
4.531000 0.019338
4.532000 0.019295
4.533000 0.019250
4.534000 0.019221
4.535000 0.019204
4.536000 0.019194
4.537000 0.019186
4.538000 0.019179
4.539000 0.019170
4.540000 0.019160
4.541000 0.019148
4.542000 0.019128
4.543000 0.019098
4.544000 0.019076
4.545000 0.019083
4.546000 0.019116
4.547000 0.019172
4.548000 0.019250
4.549000 0.019348
4.550000 0.019458
4.551000 0.019549
4.552000 0.019620
4.553000 0.019681
4.554000 0.019745
4.555000 0.019817
4.556000 0.019899
4.557000 0.019990
4.558000 0.020065
4.559000 0.020120
4.560000 0.020156
4.561000 0.020178
4.562000 0.020194
4.563000 0.020209
4.564000 0.020225
4.565000 0.020246
4.566000 0.020270
4.567000 0.020295
4.568000 0.020316
4.569000 0.020335
4.570000 0.020356
4.571000 0.020384
4.572000 0.020422
4.573000 0.020467
4.574000 0.020512
4.575000 0.020545
4.576000 0.020558
4.577000 0.020556
4.578000 0.020560
4.579000 0.020571
4.580000 0.020580
4.581000 0.020585
4.582000 0.020583
4.583000 0.020571
4.584000 0.020547
4.585000 0.020511
4.586000 0.020462
4.587000 0.020403
4.588000 0.020334
4.589000 0.020272
4.590000 0.020243
4.591000 0.020253
4.592000 0.020299
4.593000 0.020374
4.594000 0.020466
4.595000 0.020565
4.596000 0.020663
4.597000 0.020760
4.598000 0.020858
4.599000 0.020962
4.600000 0.021072
4.601000 0.021186
4.602000 0.021299
4.603000 0.021400
4.604000 0.021483
4.605000 0.021546
4.606000 0.021594
4.607000 0.021629
4.608000 0.021627
4.609000 0.021598
4.610000 0.021556
4.611000 0.021515
4.612000 0.021486
4.613000 0.021478
4.614000 0.021493
4.615000 0.021534
4.616000 0.021597
4.617000 0.021680
4.618000 0.021765
4.619000 0.021840
4.620000 0.021900
4.621000 0.021945
4.622000 0.021975
4.623000 0.021992
4.624000 0.021994
4.625000 0.021979
4.626000 0.021943
4.627000 0.021884
4.628000 0.021830
4.629000 0.021795
4.630000 0.021776
4.631000 0.021762
4.632000 0.021743
4.633000 0.021716
4.634000 0.021685
4.635000 0.021660
4.636000 0.021647
4.637000 0.021652
4.638000 0.021674
4.639000 0.021708
4.640000 0.021756
4.641000 0.021815
4.642000 0.021870
4.643000 0.021907
4.644000 0.021916
4.645000 0.021894
4.646000 0.021852
4.647000 0.021825
4.648000 0.021820
4.649000 0.021840
4.650000 0.021887
4.651000 0.021956
4.652000 0.022039
4.653000 0.022122
4.654000 0.022198
4.655000 0.022260
4.656000 0.022307
4.657000 0.022340
4.658000 0.022363
4.659000 0.022379
4.660000 0.022394
4.661000 0.022416
4.662000 0.022450
4.663000 0.022499
4.664000 0.022563
4.665000 0.022639
4.666000 0.022717
4.667000 0.022754
4.668000 0.022754
4.669000 0.022727
4.670000 0.022680
4.671000 0.022619
4.672000 0.022551
4.673000 0.022478
4.674000 0.022407
4.675000 0.022346
4.676000 0.022301
4.677000 0.022273
4.678000 0.022266
4.679000 0.022257
4.680000 0.022231
4.681000 0.022199
4.682000 0.022160
4.683000 0.022110
4.684000 0.022040
4.685000 0.021947
4.686000 0.021863
4.687000 0.021794
4.688000 0.021739
4.689000 0.021688
4.690000 0.021631
4.691000 0.021563
4.692000 0.021486
4.693000 0.021408
4.694000 0.021348
4.695000 0.021309
4.696000 0.021297
4.697000 0.021316
4.698000 0.021363
4.699000 0.021433
4.700000 0.021520
4.701000 0.021618
4.702000 0.021720
4.703000 0.021816
4.704000 0.021901
4.705000 0.021973
4.706000 0.022030
4.707000 0.022068
4.708000 0.022082
4.709000 0.022089
4.710000 0.022114
4.711000 0.022151
4.712000 0.022189
4.713000 0.022216
4.714000 0.022222
4.715000 0.022199
4.716000 0.022157
4.717000 0.022171
4.718000 0.022246
4.719000 0.022344
4.720000 0.022427
4.721000 0.022482
4.722000 0.022503
4.723000 0.022488
4.724000 0.022440
4.725000 0.022368
4.726000 0.022281
4.727000 0.022186
4.728000 0.022091
4.729000 0.022005
4.730000 0.021937
4.731000 0.021890
4.732000 0.021865
4.733000 0.021858
4.734000 0.021863
4.735000 0.021872
4.736000 0.021874
4.737000 0.021857
4.738000 0.021810
4.739000 0.021734
4.740000 0.021672
4.741000 0.021623
4.742000 0.021583
4.743000 0.021546
4.744000 0.021529
4.745000 0.021558
4.746000 0.021622
4.747000 0.021715
4.748000 0.021841
4.749000 0.021989
4.750000 0.022138
4.751000 0.022255
4.752000 0.022323
4.753000 0.022346
4.754000 0.022329
4.755000 0.022299
4.756000 0.022281
4.757000 0.022267
4.758000 0.022248
4.759000 0.022217
4.760000 0.022165
4.761000 0.022095
4.762000 0.022045
4.763000 0.022017
4.764000 0.022015
4.765000 0.022037
4.766000 0.022078
4.767000 0.022128
4.768000 0.022179
4.769000 0.022228
4.770000 0.022278
4.771000 0.022331
4.772000 0.022387
4.773000 0.022441
4.774000 0.022482
4.775000 0.022499
4.776000 0.022500
4.777000 0.022537
4.778000 0.022584
4.779000 0.022623
4.780000 0.022640
4.781000 0.022624
4.782000 0.022585
4.783000 0.022617
4.784000 0.022739
4.785000 0.022954
4.786000 0.023234
4.787000 0.023510
4.788000 0.023758
4.789000 0.023968
4.790000 0.024140
4.791000 0.024278
4.792000 0.024387
4.793000 0.024474
4.794000 0.024548
4.795000 0.024612
4.796000 0.024673
4.797000 0.024734
4.798000 0.024792
4.799000 0.024805
4.800000 0.024778
4.801000 0.024718
4.802000 0.024669
4.803000 0.024638
4.804000 0.024629
4.805000 0.024651
4.806000 0.024709
4.807000 0.024803
4.808000 0.024880
4.809000 0.024925
4.810000 0.024936
4.811000 0.024919
4.812000 0.024884
4.813000 0.024839
4.814000 0.024786
4.815000 0.024718
4.816000 0.024629
4.817000 0.024559
4.818000 0.024536
4.819000 0.024562
4.820000 0.024638
4.821000 0.024750
4.822000 0.024881
4.823000 0.025017
4.824000 0.025149
4.825000 0.025273
4.826000 0.025385
4.827000 0.025484
4.828000 0.025570
4.829000 0.025641
4.830000 0.025697
4.831000 0.025738
4.832000 0.025769
4.833000 0.025794
4.834000 0.025818
4.835000 0.025842
4.836000 0.025868
4.837000 0.025891
4.838000 0.025906
4.839000 0.025904
4.840000 0.025884
4.841000 0.025851
4.842000 0.025814
4.843000 0.025788
4.844000 0.025788
4.845000 0.025823
4.846000 0.025901
4.847000 0.025999
4.848000 0.026104
4.849000 0.026218
4.850000 0.026340
4.851000 0.026465
4.852000 0.026587
4.853000 0.026700
4.854000 0.026797
4.855000 0.026878
4.856000 0.026949
4.857000 0.027016
4.858000 0.027085
4.859000 0.027159
4.860000 0.027226
4.861000 0.027266
4.862000 0.027283
4.863000 0.027279
4.864000 0.027256
4.865000 0.027212
4.866000 0.027150
4.867000 0.027076
4.868000 0.027002
4.869000 0.026936
4.870000 0.026890
4.871000 0.026865
4.872000 0.026857
4.873000 0.026855
4.874000 0.026852
4.875000 0.026847
4.876000 0.026844
4.877000 0.026848
4.878000 0.026863
4.879000 0.026889
4.880000 0.026917
4.881000 0.026948
4.882000 0.026984
4.883000 0.027024
4.884000 0.027070
4.885000 0.027123
4.886000 0.027184
4.887000 0.027234
4.888000 0.027261
4.889000 0.027264
4.890000 0.027246
4.891000 0.027214
4.892000 0.027175
4.893000 0.027135
4.894000 0.027097
4.895000 0.027061
4.896000 0.027028
4.897000 0.026997
4.898000 0.026971
4.899000 0.026951
4.900000 0.026937
4.901000 0.026931
4.902000 0.026928
4.903000 0.026927
4.904000 0.026929
4.905000 0.026931
4.906000 0.026933
4.907000 0.026935
4.908000 0.026936
4.909000 0.026941
4.910000 0.026956
4.911000 0.026974
4.912000 0.026990
4.913000 0.027003
4.914000 0.027016
4.915000 0.027034
4.916000 0.027063
4.917000 0.027110
4.918000 0.027147
4.919000 0.027169
4.920000 0.027176
4.921000 0.027173
4.922000 0.027163
4.923000 0.027149
4.924000 0.027133
4.925000 0.027117
4.926000 0.027101
4.927000 0.027086
4.928000 0.027074
4.929000 0.027070
4.930000 0.027081
4.931000 0.027108
4.932000 0.027151
4.933000 0.027208
4.934000 0.027258
4.935000 0.027297
4.936000 0.027328
4.937000 0.027353
4.938000 0.027373
4.939000 0.027393
4.940000 0.027415
4.941000 0.027446
4.942000 0.027489
4.943000 0.027549
4.944000 0.027603
4.945000 0.027625
4.946000 0.027613
4.947000 0.027569
4.948000 0.027497
4.949000 0.027405
4.950000 0.027307
4.951000 0.027213
4.952000 0.027126
4.953000 0.027044
4.954000 0.026963
4.955000 0.026879
4.956000 0.026793
4.957000 0.026706
4.958000 0.026621
4.959000 0.026542
4.960000 0.026476
4.961000 0.026426
4.962000 0.026389
4.963000 0.026362
4.964000 0.026338
4.965000 0.026313
4.966000 0.026282
4.967000 0.026244
4.968000 0.026201
4.969000 0.026151
4.970000 0.026095
4.971000 0.026034
4.972000 0.025970
4.973000 0.025914
4.974000 0.025872
4.975000 0.025846
4.976000 0.025839
4.977000 0.025849
4.978000 0.025863
4.979000 0.025873
4.980000 0.025883
4.981000 0.025892
4.982000 0.025900
4.983000 0.025907
4.984000 0.025914
4.985000 0.025922
4.986000 0.025930
4.987000 0.025940
4.988000 0.025957
4.989000 0.025970
4.990000 0.025959
4.991000 0.025924
4.992000 0.025868
4.993000 0.025794
4.994000 0.025707
4.995000 0.025611
4.996000 0.025509
4.997000 0.025403
4.998000 0.025292
4.999000 0.025179
5.000000 0.025064
5.001000 0.024951
5.002000 0.024847
5.003000 0.024760
5.004000 0.024694
5.005000 0.024653
5.006000 0.024635
5.007000 0.024637
5.008000 0.024654
5.009000 0.024677
5.010000 0.024700
5.011000 0.024714
5.012000 0.024715
5.013000 0.024703
5.014000 0.024677
5.015000 0.024635
5.016000 0.024576
5.017000 0.024507
5.018000 0.024436
5.019000 0.024367
5.020000 0.024303
5.021000 0.024248
5.022000 0.024206
5.023000 0.024178
5.024000 0.024167
5.025000 0.024173
5.026000 0.024200
5.027000 0.024244
5.028000 0.024280
5.029000 0.024293
5.030000 0.024287
5.031000 0.024273
5.032000 0.024259
5.033000 0.024247
5.034000 0.024242
5.035000 0.024260
5.036000 0.024289
5.037000 0.024323
5.038000 0.024353
5.039000 0.024374
5.040000 0.024382
5.041000 0.024380
5.042000 0.024375
5.043000 0.024375
5.044000 0.024384
5.045000 0.024402
5.046000 0.024418
5.047000 0.024404
5.048000 0.024364
5.049000 0.024301
5.050000 0.024217
5.051000 0.024116
5.052000 0.024006
5.053000 0.023898
5.054000 0.023793
5.055000 0.023692
5.056000 0.023590
5.057000 0.023485
5.058000 0.023377
5.059000 0.023264
5.060000 0.023144
5.061000 0.023034
5.062000 0.022930
5.063000 0.022826
5.064000 0.022720
5.065000 0.022631
5.066000 0.022563
5.067000 0.022517
5.068000 0.022494
5.069000 0.022488
5.070000 0.022499
5.071000 0.022525
5.072000 0.022564
5.073000 0.022614
5.074000 0.022669
5.075000 0.022718
5.076000 0.022758
5.077000 0.022789
5.078000 0.022812
5.079000 0.022833
5.080000 0.022850
5.081000 0.022859
5.082000 0.022861
5.083000 0.022864
5.084000 0.022876
5.085000 0.022904
5.086000 0.022917
5.087000 0.022908
5.088000 0.022880
5.089000 0.022848
5.090000 0.022825
5.091000 0.022821
5.092000 0.022834
5.093000 0.022857
5.094000 0.022870
5.095000 0.022870
5.096000 0.022849
5.097000 0.022799
5.098000 0.022719
5.099000 0.022608
5.100000 0.022472
5.101000 0.022320
5.102000 0.022163
5.103000 0.022015
5.104000 0.021888
5.105000 0.021790
5.106000 0.021727
5.107000 0.021705
5.108000 0.021726
5.109000 0.021770
5.110000 0.021783
5.111000 0.021771
5.112000 0.021747
5.113000 0.021723
5.114000 0.021710
5.115000 0.021718
5.116000 0.021746
5.117000 0.021723
5.118000 0.021651
5.119000 0.021545
5.120000 0.021427
5.121000 0.021318
5.122000 0.021231
5.123000 0.021169
5.124000 0.021131
5.125000 0.021110
5.126000 0.021099
5.127000 0.021084
5.128000 0.021055
5.129000 0.021029
5.130000 0.021014
5.131000 0.021006
5.132000 0.021001
5.133000 0.020994
5.134000 0.020982
5.135000 0.020966
5.136000 0.020949
5.137000 0.020937
5.138000 0.020938
5.139000 0.020951
5.140000 0.020935
5.141000 0.020919
5.142000 0.020917
5.143000 0.020935
5.144000 0.020960
5.145000 0.020964
5.146000 0.020940
5.147000 0.020884
5.148000 0.020800
5.149000 0.020700
5.150000 0.020609
5.151000 0.020548
5.152000 0.020525
5.153000 0.020537
5.154000 0.020581
5.155000 0.020630
5.156000 0.020662
5.157000 0.020681
5.158000 0.020692
5.159000 0.020698
5.160000 0.020705
5.161000 0.020715
5.162000 0.020696
5.163000 0.020653
5.164000 0.020591
5.165000 0.020513
5.166000 0.020425
5.167000 0.020339
5.168000 0.020257
5.169000 0.020191
5.170000 0.020139
5.171000 0.020099
5.172000 0.020063
5.173000 0.020031
5.174000 0.020007
5.175000 0.019998
5.176000 0.019994
5.177000 0.019967
5.178000 0.019928
5.179000 0.019885
5.180000 0.019848
5.181000 0.019836
5.182000 0.019842
5.183000 0.019773
5.184000 0.019617
5.185000 0.019393
5.186000 0.019118
5.187000 0.018813
5.188000 0.018501
5.189000 0.018195
5.190000 0.017907
5.191000 0.017649
5.192000 0.017432
5.193000 0.017261
5.194000 0.017133
5.195000 0.017039
5.196000 0.016970
5.197000 0.016917
5.198000 0.016875
5.199000 0.016843
5.200000 0.016823
5.201000 0.016825
5.202000 0.016805
5.203000 0.016772
5.204000 0.016730
5.205000 0.016684
5.206000 0.016638
5.207000 0.016592
5.208000 0.016548
5.209000 0.016507
5.210000 0.016468
5.211000 0.016432
5.212000 0.016400
5.213000 0.016376
5.214000 0.016368
5.215000 0.016383
5.216000 0.016427
5.217000 0.016455
5.218000 0.016435
5.219000 0.016359
5.220000 0.016224
5.221000 0.016043
5.222000 0.015842
5.223000 0.015644
5.224000 0.015461
5.225000 0.015297
5.226000 0.015152
5.227000 0.015027
5.228000 0.014939
5.229000 0.014889
5.230000 0.014873
5.231000 0.014883
5.232000 0.014909
5.233000 0.014944
5.234000 0.014974
5.235000 0.014987
5.236000 0.014970
5.237000 0.014922
5.238000 0.014848
5.239000 0.014779
5.240000 0.014733
5.241000 0.014710
5.242000 0.014707
5.243000 0.014715
5.244000 0.014724
5.245000 0.014722
5.246000 0.014701
5.247000 0.014653
5.248000 0.014580
5.249000 0.014485
5.250000 0.014374
5.251000 0.014250
5.252000 0.014122
5.253000 0.013999
5.254000 0.013890
5.255000 0.013800
5.256000 0.013730
5.257000 0.013677
5.258000 0.013640
5.259000 0.013617
5.260000 0.013606
5.261000 0.013605
5.262000 0.013607
5.263000 0.013608
5.264000 0.013606
5.265000 0.013605
5.266000 0.013609
5.267000 0.013619
5.268000 0.013636
5.269000 0.013654
5.270000 0.013672
5.271000 0.013685
5.272000 0.013691
5.273000 0.013687
5.274000 0.013681
5.275000 0.013682
5.276000 0.013682
5.277000 0.013676
5.278000 0.013659
5.279000 0.013636
5.280000 0.013614
5.281000 0.013596
5.282000 0.013583
5.283000 0.013574
5.284000 0.013568
5.285000 0.013564
5.286000 0.013559
5.287000 0.013554
5.288000 0.013548
5.289000 0.013542
5.290000 0.013542
5.291000 0.013549
5.292000 0.013561
5.293000 0.013574
5.294000 0.013581
5.295000 0.013579
5.296000 0.013563
5.297000 0.013533
5.298000 0.013494
5.299000 0.013451
5.300000 0.013409
5.301000 0.013372
5.302000 0.013342
5.303000 0.013319
5.304000 0.013299
5.305000 0.013281
5.306000 0.013265
5.307000 0.013256
5.308000 0.013254
5.309000 0.013255
5.310000 0.013253
5.311000 0.013245
5.312000 0.013230
5.313000 0.013207
5.314000 0.013177
5.315000 0.013143
5.316000 0.013104
5.317000 0.013057
5.318000 0.013007
5.319000 0.012962
5.320000 0.012925
5.321000 0.012893
5.322000 0.012864
5.323000 0.012832
5.324000 0.012790
5.325000 0.012736
5.326000 0.012675
5.327000 0.012634
5.328000 0.012608
5.329000 0.012589
5.330000 0.012572
5.331000 0.012552
5.332000 0.012532
5.333000 0.012512
5.334000 0.012494
5.335000 0.012479
5.336000 0.012468
5.337000 0.012462
5.338000 0.012460
5.339000 0.012460
5.340000 0.012457
5.341000 0.012446
5.342000 0.012423
5.343000 0.012391
5.344000 0.012352
5.345000 0.012308
5.346000 0.012259
5.347000 0.012230
5.348000 0.012220
5.349000 0.012220
5.350000 0.012220
5.351000 0.012213
5.352000 0.012205
5.353000 0.012211
5.354000 0.012233
5.355000 0.012270
5.356000 0.012318
5.357000 0.012370
5.358000 0.012423
5.359000 0.012470
5.360000 0.012505
5.361000 0.012527
5.362000 0.012537
5.363000 0.012539
5.364000 0.012537
5.365000 0.012532
5.366000 0.012530
5.367000 0.012534
5.368000 0.012545
5.369000 0.012565
5.370000 0.012591
5.371000 0.012623
5.372000 0.012654
5.373000 0.012675
5.374000 0.012683
5.375000 0.012681
5.376000 0.012671
5.377000 0.012664
5.378000 0.012655
5.379000 0.012638
5.380000 0.012611
5.381000 0.012580
5.382000 0.012554
5.383000 0.012533
5.384000 0.012516
5.385000 0.012503
5.386000 0.012496
5.387000 0.012493
5.388000 0.012493
5.389000 0.012498
5.390000 0.012506
5.391000 0.012517
5.392000 0.012525
5.393000 0.012525
5.394000 0.012512
5.395000 0.012507
5.396000 0.012513
5.397000 0.012526
5.398000 0.012543
5.399000 0.012557
5.400000 0.012563
5.401000 0.012554
5.402000 0.012528
5.403000 0.012485
5.404000 0.012461
5.405000 0.012457
5.406000 0.012479
5.407000 0.012527
5.408000 0.012601
5.409000 0.012697
5.410000 0.012809
5.411000 0.012929
5.412000 0.013048
5.413000 0.013162
5.414000 0.013270
5.415000 0.013372
5.416000 0.013466
5.417000 0.013549
5.418000 0.013615
5.419000 0.013657
5.420000 0.013670
5.421000 0.013651
5.422000 0.013621
5.423000 0.013601
5.424000 0.013585
5.425000 0.013567
5.426000 0.013545
5.427000 0.013521
5.428000 0.013496
5.429000 0.013473
5.430000 0.013453
5.431000 0.013440
5.432000 0.013436
5.433000 0.013445
5.434000 0.013461
5.435000 0.013461
5.436000 0.013446
5.437000 0.013418
5.438000 0.013375
5.439000 0.013321
5.440000 0.013268
5.441000 0.013228
5.442000 0.013206
5.443000 0.013200
5.444000 0.013210
5.445000 0.013234
5.446000 0.013268
5.447000 0.013306
5.448000 0.013342
5.449000 0.013374
5.450000 0.013400
5.451000 0.013420
5.452000 0.013434
5.453000 0.013438
5.454000 0.013436
5.455000 0.013430
5.456000 0.013424
5.457000 0.013420
5.458000 0.013422
5.459000 0.013431
5.460000 0.013451
5.461000 0.013463
5.462000 0.013469
5.463000 0.013478
5.464000 0.013498
5.465000 0.013522
5.466000 0.013550
5.467000 0.013582
5.468000 0.013614
5.469000 0.013644
5.470000 0.013670
5.471000 0.013694
5.472000 0.013715
5.473000 0.013735
5.474000 0.013755
5.475000 0.013779
5.476000 0.013805
5.477000 0.013833
5.478000 0.013859
5.479000 0.013877
5.480000 0.013886
5.481000 0.013890
5.482000 0.013889
5.483000 0.013885
5.484000 0.013879
5.485000 0.013872
5.486000 0.013868
5.487000 0.013869
5.488000 0.013876
5.489000 0.013888
5.490000 0.013903
5.491000 0.013918
5.492000 0.013930
5.493000 0.013936
5.494000 0.013932
5.495000 0.013916
5.496000 0.013896
5.497000 0.013885
5.498000 0.013879
5.499000 0.013870
5.500000 0.013854
5.501000 0.013826
5.502000 0.013801
5.503000 0.013785
5.504000 0.013782
5.505000 0.013797
5.506000 0.013837
5.507000 0.013904
5.508000 0.013995
5.509000 0.014101
5.510000 0.014214
5.511000 0.014327
5.512000 0.014433
5.513000 0.014531
5.514000 0.014621
5.515000 0.014703
5.516000 0.014778
5.517000 0.014848
5.518000 0.014911
5.519000 0.014967
5.520000 0.015011
5.521000 0.015043
5.522000 0.015063
5.523000 0.015074
5.524000 0.015078
5.525000 0.015080
5.526000 0.015082
5.527000 0.015092
5.528000 0.015116
5.529000 0.015131
5.530000 0.015129
5.531000 0.015116
5.532000 0.015099
5.533000 0.015087
5.534000 0.015089
5.535000 0.015110
5.536000 0.015154
5.537000 0.015220
5.538000 0.015303
5.539000 0.015402
5.540000 0.015514
5.541000 0.015616
5.542000 0.015703
5.543000 0.015769
5.544000 0.015810
5.545000 0.015821
5.546000 0.015797
5.547000 0.015755
5.548000 0.015734
5.549000 0.015728
5.550000 0.015730
5.551000 0.015736
5.552000 0.015745
5.553000 0.015754
5.554000 0.015759
5.555000 0.015755
5.556000 0.015740
5.557000 0.015716
5.558000 0.015689
5.559000 0.015666
5.560000 0.015655
5.561000 0.015655
5.562000 0.015661
5.563000 0.015666
5.564000 0.015670
5.565000 0.015688
5.566000 0.015722
5.567000 0.015769
5.568000 0.015829
5.569000 0.015887
5.570000 0.015936
5.571000 0.015974
5.572000 0.016006
5.573000 0.016040
5.574000 0.016084
5.575000 0.016149
5.576000 0.016237
5.577000 0.016308
5.578000 0.016359
5.579000 0.016395
5.580000 0.016419
5.581000 0.016433
5.582000 0.016439
5.583000 0.016436
5.584000 0.016442
5.585000 0.016447
5.586000 0.016447
5.587000 0.016442
5.588000 0.016429
5.589000 0.016418
5.590000 0.016421
5.591000 0.016435
5.592000 0.016451
5.593000 0.016463
5.594000 0.016468
5.595000 0.016470
5.596000 0.016474
5.597000 0.016486
5.598000 0.016511
5.599000 0.016550
5.600000 0.016598
5.601000 0.016647
5.602000 0.016699
5.603000 0.016747
5.604000 0.016789
5.605000 0.016821
5.606000 0.016840
5.607000 0.016845
5.608000 0.016835
5.609000 0.016811
5.610000 0.016773
5.611000 0.016720
5.612000 0.016671
5.613000 0.016637
5.614000 0.016613
5.615000 0.016597
5.616000 0.016588
5.617000 0.016584
5.618000 0.016587
5.619000 0.016601
5.620000 0.016629
5.621000 0.016668
5.622000 0.016701
5.623000 0.016711
5.624000 0.016715
5.625000 0.016754
5.626000 0.016833
5.627000 0.016952
5.628000 0.017085
5.629000 0.017216
5.630000 0.017336
5.631000 0.017438
5.632000 0.017519
5.633000 0.017571
5.634000 0.017597
5.635000 0.017604
5.636000 0.017601
5.637000 0.017593
5.638000 0.017589
5.639000 0.017597
5.640000 0.017600
5.641000 0.017596
5.642000 0.017581
5.643000 0.017549
5.644000 0.017497
5.645000 0.017436
5.646000 0.017402
5.647000 0.017395
5.648000 0.017414
5.649000 0.017455
5.650000 0.017510
5.651000 0.017573
5.652000 0.017636
5.653000 0.017692
5.654000 0.017735
5.655000 0.017763
5.656000 0.017775
5.657000 0.017771
5.658000 0.017753
5.659000 0.017724
5.660000 0.017688
5.661000 0.017650
5.662000 0.017616
5.663000 0.017589
5.664000 0.017563
5.665000 0.017533
5.666000 0.017522
5.667000 0.017527
5.668000 0.017546
5.669000 0.017581
5.670000 0.017635
5.671000 0.017707
5.672000 0.017797
5.673000 0.017901
5.674000 0.018003
5.675000 0.018088
5.676000 0.018152
5.677000 0.018197
5.678000 0.018227
5.679000 0.018237
5.680000 0.018232
5.681000 0.018234
5.682000 0.018243
5.683000 0.018256
5.684000 0.018273
5.685000 0.018295
5.686000 0.018324
5.687000 0.018361
5.688000 0.018409
5.689000 0.018463
5.690000 0.018514
5.691000 0.018554
5.692000 0.018583
5.693000 0.018600
5.694000 0.018606
5.695000 0.018603
5.696000 0.018592
5.697000 0.018574
5.698000 0.018546
5.699000 0.018515
5.700000 0.018490
5.701000 0.018469
5.702000 0.018446
5.703000 0.018422
5.704000 0.018397
5.705000 0.018389
5.706000 0.018398
5.707000 0.018418
5.708000 0.018445
5.709000 0.018476
5.710000 0.018514
5.711000 0.018562
5.712000 0.018625
5.713000 0.018706
5.714000 0.018805
5.715000 0.018921
5.716000 0.019049
5.717000 0.019181
5.718000 0.019305
5.719000 0.019403
5.720000 0.019473
5.721000 0.019518
5.722000 0.019549
5.723000 0.019578
5.724000 0.019620
5.725000 0.019685
5.726000 0.019769
5.727000 0.019842
5.728000 0.019901
5.729000 0.019946
5.730000 0.019980
5.731000 0.020005
5.732000 0.020022
5.733000 0.020032
5.734000 0.020038
5.735000 0.020043
5.736000 0.020054
5.737000 0.020073
5.738000 0.020100
5.739000 0.020136
5.740000 0.020179
5.741000 0.020230
5.742000 0.020287
5.743000 0.020349
5.744000 0.020413
5.745000 0.020478
5.746000 0.020540
5.747000 0.020578
5.748000 0.020595
5.749000 0.020600
5.750000 0.020603
5.751000 0.020613
5.752000 0.020622
5.753000 0.020617
5.754000 0.020599
5.755000 0.020574
5.756000 0.020547
5.757000 0.020528
5.758000 0.020527
5.759000 0.020550
5.760000 0.020601
5.761000 0.020672
5.762000 0.020752
5.763000 0.020825
5.764000 0.020883
5.765000 0.020923
5.766000 0.020941
5.767000 0.020931
5.768000 0.020907
5.769000 0.020904
5.770000 0.020919
5.771000 0.020949
5.772000 0.020994
5.773000 0.021055
5.774000 0.021128
5.775000 0.021209
5.776000 0.021288
5.777000 0.021351
5.778000 0.021397
5.779000 0.021427
5.780000 0.021443
5.781000 0.021441
5.782000 0.021452
5.783000 0.021471
5.784000 0.021497
5.785000 0.021529
5.786000 0.021566
5.787000 0.021609
5.788000 0.021656
5.789000 0.021704
5.790000 0.021745
5.791000 0.021774
5.792000 0.021786
5.793000 0.021782
5.794000 0.021794
5.795000 0.021813
5.796000 0.021835
5.797000 0.021859
5.798000 0.021883
5.799000 0.021909
5.800000 0.021935
5.801000 0.021961
5.802000 0.021986
5.803000 0.022006
5.804000 0.021991
5.805000 0.021983
5.806000 0.021981
5.807000 0.021985
5.808000 0.021992
5.809000 0.021997
5.810000 0.021997
5.811000 0.021984
5.812000 0.021957
5.813000 0.021919
5.814000 0.021873
5.815000 0.021824
5.816000 0.021777
5.817000 0.021736
5.818000 0.021712
5.819000 0.021718
5.820000 0.021766
5.821000 0.021859
5.822000 0.021978
5.823000 0.022095
5.824000 0.022207
5.825000 0.022307
5.826000 0.022390
5.827000 0.022452
5.828000 0.022488
5.829000 0.022498
5.830000 0.022485
5.831000 0.022475
5.832000 0.022477
5.833000 0.022483
5.834000 0.022486
5.835000 0.022476
5.836000 0.022464
5.837000 0.022486
5.838000 0.022546
5.839000 0.022641
5.840000 0.022753
5.841000 0.022867
5.842000 0.022977
5.843000 0.023084
5.844000 0.023192
5.845000 0.023304
5.846000 0.023422
5.847000 0.023538
5.848000 0.023643
5.849000 0.023727
5.850000 0.023783
5.851000 0.023814
5.852000 0.023819
5.853000 0.023810
5.854000 0.023823
5.855000 0.023852
5.856000 0.023896
5.857000 0.023952
5.858000 0.024018
5.859000 0.024083
5.860000 0.024135
5.861000 0.024166
5.862000 0.024167
5.863000 0.024171
5.864000 0.024209
5.865000 0.024276
5.866000 0.024372
5.867000 0.024490
5.868000 0.024624
5.869000 0.024766
5.870000 0.024902
5.871000 0.025018
5.872000 0.025106
5.873000 0.025164
5.874000 0.025191
5.875000 0.025187
5.876000 0.025154
5.877000 0.025097
5.878000 0.025066
5.879000 0.025070
5.880000 0.025101
5.881000 0.025146
5.882000 0.025200
5.883000 0.025254
5.884000 0.025302
5.885000 0.025336
5.886000 0.025347
5.887000 0.025328
5.888000 0.025319
5.889000 0.025339
5.890000 0.025387
5.891000 0.025456
5.892000 0.025541
5.893000 0.025632
5.894000 0.025721
5.895000 0.025799
5.896000 0.025857
5.897000 0.025879
5.898000 0.025873
5.899000 0.025876
5.900000 0.025906
5.901000 0.025962
5.902000 0.026022
5.903000 0.026072
5.904000 0.026096
5.905000 0.026082
5.906000 0.026014
5.907000 0.025912
5.908000 0.025829
5.909000 0.025771
5.910000 0.025740
5.911000 0.025730
5.912000 0.025733
5.913000 0.025744
5.914000 0.025762
5.915000 0.025789
5.916000 0.025829
5.917000 0.025882
5.918000 0.025945
5.919000 0.026008
5.920000 0.026061
5.921000 0.026093
5.922000 0.026103
5.923000 0.026099
5.924000 0.026090
5.925000 0.026082
5.926000 0.026081
5.927000 0.026093
5.928000 0.026122
5.929000 0.026168
5.930000 0.026229
5.931000 0.026300
5.932000 0.026375
5.933000 0.026445
5.934000 0.026498
5.935000 0.026529
5.936000 0.026534
5.937000 0.026508
5.938000 0.026450
5.939000 0.026360
5.940000 0.026251
5.941000 0.026162
5.942000 0.026087
5.943000 0.026021
5.944000 0.025959
5.945000 0.025915
5.946000 0.025925
5.947000 0.025971
5.948000 0.026011
5.949000 0.026045
5.950000 0.026073
5.951000 0.026091
5.952000 0.026096
5.953000 0.026091
5.954000 0.026085
5.955000 0.026085
5.956000 0.026096
5.957000 0.026121
5.958000 0.026164
5.959000 0.026226
5.960000 0.026309
5.961000 0.026416
5.962000 0.026549
5.963000 0.026704
5.964000 0.026871
5.965000 0.027026
5.966000 0.027160
5.967000 0.027269
5.968000 0.027354
5.969000 0.027416
5.970000 0.027460
5.971000 0.027492
5.972000 0.027514
5.973000 0.027527
5.974000 0.027527
5.975000 0.027518
5.976000 0.027502
5.977000 0.027487
5.978000 0.027481
5.979000 0.027492
5.980000 0.027523
5.981000 0.027574
5.982000 0.027641
5.983000 0.027719
5.984000 0.027788
5.985000 0.027839
5.986000 0.027873
5.987000 0.027896
5.988000 0.027912
5.989000 0.027918
5.990000 0.027904
5.991000 0.027883
5.992000 0.027858
5.993000 0.027828
5.994000 0.027794
5.995000 0.027753
5.996000 0.027717
5.997000 0.027688
5.998000 0.027665
5.999000 0.027646
6.000000 0.027632
6.001000 0.027624
6.002000 0.027620
6.003000 0.027620
6.004000 0.027623
6.005000 0.027627
6.006000 0.027636
6.007000 0.027652
6.008000 0.027676
6.009000 0.027710
6.010000 0.027755
6.011000 0.027814
6.012000 0.027872
6.013000 0.027914
6.014000 0.027947
6.015000 0.027971
6.016000 0.027988
6.017000 0.027998
6.018000 0.027999
6.019000 0.027990
6.020000 0.027976
6.021000 0.027967
6.022000 0.027979
6.023000 0.028025
6.024000 0.028084
6.025000 0.028117
6.026000 0.028121
6.027000 0.028094
6.028000 0.028041
6.029000 0.027971
6.030000 0.027891
6.031000 0.027808
6.032000 0.027726
6.033000 0.027655
6.034000 0.027604
6.035000 0.027579
6.036000 0.027584
6.037000 0.027618
6.038000 0.027674
6.039000 0.027722
6.040000 0.027766
6.041000 0.027810
6.042000 0.027858
6.043000 0.027915
6.044000 0.027984
6.045000 0.028049
6.046000 0.028075
6.047000 0.028062
6.048000 0.028016
6.049000 0.027946
6.050000 0.027863
6.051000 0.027776
6.052000 0.027693
6.053000 0.027621
6.054000 0.027566
6.055000 0.027529
6.056000 0.027511
6.057000 0.027509
6.058000 0.027520
6.059000 0.027539
6.060000 0.027563
6.061000 0.027587
6.062000 0.027607
6.063000 0.027624
6.064000 0.027642
6.065000 0.027669
6.066000 0.027680
6.067000 0.027678
6.068000 0.027664
6.069000 0.027639
6.070000 0.027600
6.071000 0.027549
6.072000 0.027489
6.073000 0.027428
6.074000 0.027370
6.075000 0.027325
6.076000 0.027297
6.077000 0.027288
6.078000 0.027298
6.079000 0.027325
6.080000 0.027358
6.081000 0.027372
6.082000 0.027369
6.083000 0.027354
6.084000 0.027331
6.085000 0.027305
6.086000 0.027280
6.087000 0.027258
6.088000 0.027238
6.089000 0.027222
6.090000 0.027208
6.091000 0.027197
6.092000 0.027187
6.093000 0.027176
6.094000 0.027166
6.095000 0.027160
6.096000 0.027163
6.097000 0.027181
6.098000 0.027213
6.099000 0.027248
6.100000 0.027273
6.101000 0.027285
6.102000 0.027288
6.103000 0.027281
6.104000 0.027290
6.105000 0.027301
6.106000 0.027306
6.107000 0.027301
6.108000 0.027284
6.109000 0.027257
6.110000 0.027218
6.111000 0.027165
6.112000 0.027096
6.113000 0.027006
6.114000 0.026898
6.115000 0.026780
6.116000 0.026658
6.117000 0.026540
6.118000 0.026434
6.119000 0.026344
6.120000 0.026272
6.121000 0.026214
6.122000 0.026164
6.123000 0.026115
6.124000 0.026060
6.125000 0.025995
6.126000 0.025920
6.127000 0.025839
6.128000 0.025760
6.129000 0.025688
6.130000 0.025625
6.131000 0.025570
6.132000 0.025525
6.133000 0.025490
6.134000 0.025462
6.135000 0.025438
6.136000 0.025412
6.137000 0.025381
6.138000 0.025344
6.139000 0.025304
6.140000 0.025263
6.141000 0.025225
6.142000 0.025191
6.143000 0.025163
6.144000 0.025141
6.145000 0.025127
6.146000 0.025124
6.147000 0.025131
6.148000 0.025147
6.149000 0.025166
6.150000 0.025184
6.151000 0.025196
6.152000 0.025203
6.153000 0.025204
6.154000 0.025201
6.155000 0.025194
6.156000 0.025180
6.157000 0.025156
6.158000 0.025115
6.159000 0.025052
6.160000 0.024964
6.161000 0.024860
6.162000 0.024749
6.163000 0.024643
6.164000 0.024554
6.165000 0.024493
6.166000 0.024463
6.167000 0.024463
6.168000 0.024478
6.169000 0.024469
6.170000 0.024440
6.171000 0.024394
6.172000 0.024338
6.173000 0.024276
6.174000 0.024215
6.175000 0.024156
6.176000 0.024101
6.177000 0.024053
6.178000 0.024015
6.179000 0.023990
6.180000 0.023979
6.181000 0.023977
6.182000 0.023965
6.183000 0.023943
6.184000 0.023915
6.185000 0.023880
6.186000 0.023838
6.187000 0.023790
6.188000 0.023738
6.189000 0.023685
6.190000 0.023638
6.191000 0.023604
6.192000 0.023589
6.193000 0.023597
6.194000 0.023600
6.195000 0.023583
6.196000 0.023549
6.197000 0.023506
6.198000 0.023460
6.199000 0.023418
6.200000 0.023387
6.201000 0.023374
6.202000 0.023383
6.203000 0.023418
6.204000 0.023474
6.205000 0.023507
6.206000 0.023514
6.207000 0.023495
6.208000 0.023452
6.209000 0.023389
6.210000 0.023313
6.211000 0.023232
6.212000 0.023150
6.213000 0.023066
6.214000 0.022995
6.215000 0.022946
6.216000 0.022909
6.217000 0.022871
6.218000 0.022821
6.219000 0.022751
6.220000 0.022668
6.221000 0.022566
6.222000 0.022441
6.223000 0.022311
6.224000 0.022193
6.225000 0.022100
6.226000 0.022036
6.227000 0.021999
6.228000 0.021983
6.229000 0.021986
6.230000 0.022002
6.231000 0.022005
6.232000 0.021985
6.233000 0.021966
6.234000 0.021959
6.235000 0.021973
6.236000 0.021997
6.237000 0.021997
6.238000 0.021968
6.239000 0.021911
6.240000 0.021831
6.241000 0.021735
6.242000 0.021630
6.243000 0.021521
6.244000 0.021406
6.245000 0.021285
6.246000 0.021161
6.247000 0.021039
6.248000 0.020931
6.249000 0.020844
6.250000 0.020782
6.251000 0.020745
6.252000 0.020730
6.253000 0.020726
6.254000 0.020699
6.255000 0.020649
6.256000 0.020581
6.257000 0.020502
6.258000 0.020419
6.259000 0.020345
6.260000 0.020292
6.261000 0.020270
6.262000 0.020283
6.263000 0.020297
6.264000 0.020273
6.265000 0.020210
6.266000 0.020107
6.267000 0.019969
6.268000 0.019804
6.269000 0.019622
6.270000 0.019434
6.271000 0.019250
6.272000 0.019092
6.273000 0.018980
6.274000 0.018910
6.275000 0.018879
6.276000 0.018879
6.277000 0.018905
6.278000 0.018907
6.279000 0.018878
6.280000 0.018821
6.281000 0.018752
6.282000 0.018685
6.283000 0.018625
6.284000 0.018577
6.285000 0.018545
6.286000 0.018537
6.287000 0.018560
6.288000 0.018573
6.289000 0.018558
6.290000 0.018520
6.291000 0.018466
6.292000 0.018404
6.293000 0.018341
6.294000 0.018287
6.295000 0.018247
6.296000 0.018223
6.297000 0.018214
6.298000 0.018220
6.299000 0.018211
6.300000 0.018175
6.301000 0.018128
6.302000 0.018074
6.303000 0.018021
6.304000 0.017976
6.305000 0.017948
6.306000 0.017942
6.307000 0.017933
6.308000 0.017880
6.309000 0.017798
6.310000 0.017693
6.311000 0.017576
6.312000 0.017458
6.313000 0.017344
6.314000 0.017228
6.315000 0.017108
6.316000 0.016984
6.317000 0.016856
6.318000 0.016730
6.319000 0.016617
6.320000 0.016534
6.321000 0.016492
6.322000 0.016490
6.323000 0.016518
6.324000 0.016561
6.325000 0.016610
6.326000 0.016656
6.327000 0.016688
6.328000 0.016696
6.329000 0.016673
6.330000 0.016613
6.331000 0.016512
6.332000 0.016402
6.333000 0.016313
6.334000 0.016246
6.335000 0.016196
6.336000 0.016158
6.337000 0.016130
6.338000 0.016115
6.339000 0.016118
6.340000 0.016128
6.341000 0.016111
6.342000 0.016081
6.343000 0.016063
6.344000 0.016066
6.345000 0.016084
6.346000 0.016084
6.347000 0.016065
6.348000 0.016027
6.349000 0.015977
6.350000 0.015924
6.351000 0.015882
6.352000 0.015859
6.353000 0.015856
6.354000 0.015868
6.355000 0.015886
6.356000 0.015901
6.357000 0.015903
6.358000 0.015882
6.359000 0.015830
6.360000 0.015746
6.361000 0.015633
6.362000 0.015498
6.363000 0.015352
6.364000 0.015205
6.365000 0.015065
6.366000 0.014937
6.367000 0.014821
6.368000 0.014714
6.369000 0.014615
6.370000 0.014521
6.371000 0.014434
6.372000 0.014353
6.373000 0.014276
6.374000 0.014202
6.375000 0.014129
6.376000 0.014055
6.377000 0.013988
6.378000 0.013923
6.379000 0.013852
6.380000 0.013774
6.381000 0.013691
6.382000 0.013612
6.383000 0.013542
6.384000 0.013485
6.385000 0.013441
6.386000 0.013412
6.387000 0.013395
6.388000 0.013388
6.389000 0.013385
6.390000 0.013384
6.391000 0.013385
6.392000 0.013389
6.393000 0.013399
6.394000 0.013421
6.395000 0.013461
6.396000 0.013512
6.397000 0.013574
6.398000 0.013648
6.399000 0.013731
6.400000 0.013819
6.401000 0.013904
6.402000 0.013981
6.403000 0.014043
6.404000 0.014086
6.405000 0.014110
6.406000 0.014119
6.407000 0.014117
6.408000 0.014110
6.409000 0.014100
6.410000 0.014086
6.411000 0.014066
6.412000 0.014037
6.413000 0.014001
6.414000 0.013960
6.415000 0.013918
6.416000 0.013877
6.417000 0.013843
6.418000 0.013819
6.419000 0.013804
6.420000 0.013795
6.421000 0.013784
6.422000 0.013764
6.423000 0.013731
6.424000 0.013681
6.425000 0.013615
6.426000 0.013534
6.427000 0.013441
6.428000 0.013352
6.429000 0.013275
6.430000 0.013213
6.431000 0.013165
6.432000 0.013131
6.433000 0.013107
6.434000 0.013083
6.435000 0.013048
6.436000 0.013007
6.437000 0.012966
6.438000 0.012920
6.439000 0.012866
6.440000 0.012802
6.441000 0.012731
6.442000 0.012659
6.443000 0.012592
6.444000 0.012541
6.445000 0.012514
6.446000 0.012515
6.447000 0.012547
6.448000 0.012605
6.449000 0.012685
6.450000 0.012780
6.451000 0.012882
6.452000 0.012983
6.453000 0.013079
6.454000 0.013165
6.455000 0.013242
6.456000 0.013303
6.457000 0.013341
6.458000 0.013344
6.459000 0.013308
6.460000 0.013277
6.461000 0.013269
6.462000 0.013270
6.463000 0.013273
6.464000 0.013275
6.465000 0.013275
6.466000 0.013275
6.467000 0.013276
6.468000 0.013276
6.469000 0.013270
6.470000 0.013248
6.471000 0.013206
6.472000 0.013181
6.473000 0.013168
6.474000 0.013161
6.475000 0.013155
6.476000 0.013144
6.477000 0.013121
6.478000 0.013088
6.479000 0.013050
6.480000 0.013021
6.481000 0.012994
6.482000 0.012958
6.483000 0.012918
6.484000 0.012889
6.485000 0.012866
6.486000 0.012843
6.487000 0.012820
6.488000 0.012793
6.489000 0.012760
6.490000 0.012720
6.491000 0.012671
6.492000 0.012613
6.493000 0.012557
6.494000 0.012523
6.495000 0.012510
6.496000 0.012513
6.497000 0.012524
6.498000 0.012535
6.499000 0.012538
6.500000 0.012531
6.501000 0.012512
6.502000 0.012509
6.503000 0.012544
6.504000 0.012598
6.505000 0.012669
6.506000 0.012761
6.507000 0.012876
6.508000 0.013009
6.509000 0.013152
6.510000 0.013297
6.511000 0.013435
6.512000 0.013558
6.513000 0.013657
6.514000 0.013726
6.515000 0.013753
6.516000 0.013742
6.517000 0.013755
6.518000 0.013781
6.519000 0.013806
6.520000 0.013820
6.521000 0.013819
6.522000 0.013803
6.523000 0.013791
6.524000 0.013795
6.525000 0.013811
6.526000 0.013839
6.527000 0.013875
6.528000 0.013918
6.529000 0.013964
6.530000 0.014010
6.531000 0.014051
6.532000 0.014082
6.533000 0.014098
6.534000 0.014098
6.535000 0.014083
6.536000 0.014059
6.537000 0.014031
6.538000 0.014000
6.539000 0.013969
6.540000 0.013937
6.541000 0.013904
6.542000 0.013866
6.543000 0.013822
6.544000 0.013770
6.545000 0.013714
6.546000 0.013661
6.547000 0.013621
6.548000 0.013597
6.549000 0.013593
6.550000 0.013608
6.551000 0.013641
6.552000 0.013690
6.553000 0.013752
6.554000 0.013822
6.555000 0.013895
6.556000 0.013963
6.557000 0.014023
6.558000 0.014074
6.559000 0.014120
6.560000 0.014167
6.561000 0.014216
6.562000 0.014265
6.563000 0.014312
6.564000 0.014349
6.565000 0.014368
6.566000 0.014365
6.567000 0.014349
6.568000 0.014347
6.569000 0.014359
6.570000 0.014386
6.571000 0.014428
6.572000 0.014486
6.573000 0.014556
6.574000 0.014629
6.575000 0.014698
6.576000 0.014763
6.577000 0.014821
6.578000 0.014874
6.579000 0.014923
6.580000 0.014967
6.581000 0.015008
6.582000 0.015034
6.583000 0.015049
6.584000 0.015055
6.585000 0.015054
6.586000 0.015044
6.587000 0.015027
6.588000 0.015026
6.589000 0.015044
6.590000 0.015082
6.591000 0.015140
6.592000 0.015213
6.593000 0.015294
6.594000 0.015374
6.595000 0.015447
6.596000 0.015507
6.597000 0.015551
6.598000 0.015580
6.599000 0.015594
6.600000 0.015597
6.601000 0.015589
6.602000 0.015568
6.603000 0.015534
6.604000 0.015486
6.605000 0.015426
6.606000 0.015359
6.607000 0.015290
6.608000 0.015224
6.609000 0.015168
6.610000 0.015128
6.611000 0.015109
6.612000 0.015115
6.613000 0.015148
6.614000 0.015189
6.615000 0.015224
6.616000 0.015259
6.617000 0.015303
6.618000 0.015363
6.619000 0.015443
6.620000 0.015531
6.621000 0.015626
6.622000 0.015734
6.623000 0.015836
6.624000 0.015924
6.625000 0.015994
6.626000 0.016049
6.627000 0.016093
6.628000 0.016133
6.629000 0.016169
6.630000 0.016199
6.631000 0.016221
6.632000 0.016233
6.633000 0.016232
6.634000 0.016239
6.635000 0.016248
6.636000 0.016255
6.637000 0.016258
6.638000 0.016257
6.639000 0.016254
6.640000 0.016251
6.641000 0.016244
6.642000 0.016225
6.643000 0.016185
6.644000 0.016157
6.645000 0.016143
6.646000 0.016147
6.647000 0.016171
6.648000 0.016219
6.649000 0.016290
6.650000 0.016384
6.651000 0.016502
6.652000 0.016643
6.653000 0.016798
6.654000 0.016951
6.655000 0.017096
6.656000 0.017227
6.657000 0.017333
6.658000 0.017412
6.659000 0.017460
6.660000 0.017477
6.661000 0.017467
6.662000 0.017442
6.663000 0.017435
6.664000 0.017442
6.665000 0.017457
6.666000 0.017473
6.667000 0.017485
6.668000 0.017485
6.669000 0.017472
6.670000 0.017464
6.671000 0.017493
6.672000 0.017543
6.673000 0.017597
6.674000 0.017651
6.675000 0.017701
6.676000 0.017746
6.677000 0.017782
6.678000 0.017813
6.679000 0.017843
6.680000 0.017882
6.681000 0.017926
6.682000 0.017967
6.683000 0.018005
6.684000 0.018038
6.685000 0.018062
6.686000 0.018074
6.687000 0.018070
6.688000 0.018051
6.689000 0.018015
6.690000 0.017974
6.691000 0.017940
6.692000 0.017913
6.693000 0.017895
6.694000 0.017887
6.695000 0.017890
6.696000 0.017906
6.697000 0.017932
6.698000 0.017965
6.699000 0.018000
6.700000 0.018034
6.701000 0.018056
6.702000 0.018070
6.703000 0.018076
6.704000 0.018076
6.705000 0.018073
6.706000 0.018071
6.707000 0.018071
6.708000 0.018068
6.709000 0.018054
6.710000 0.018038
6.711000 0.018025
6.712000 0.018022
6.713000 0.018038
6.714000 0.018086
6.715000 0.018168
6.716000 0.018283
6.717000 0.018426
6.718000 0.018594
6.719000 0.018777
6.720000 0.018964
6.721000 0.019142
6.722000 0.019300
6.723000 0.019431
6.724000 0.019532
6.725000 0.019602
6.726000 0.019648
6.727000 0.019676
6.728000 0.019697
6.729000 0.019721
6.730000 0.019760
6.731000 0.019820
6.732000 0.019872
6.733000 0.019895
6.734000 0.019894
6.735000 0.019873
6.736000 0.019840
6.737000 0.019800
6.738000 0.019767
6.739000 0.019756
6.740000 0.019761
6.741000 0.019771
6.742000 0.019782
6.743000 0.019780
6.744000 0.019765
6.745000 0.019740
6.746000 0.019714
6.747000 0.019688
6.748000 0.019663
6.749000 0.019640
6.750000 0.019616
6.751000 0.019585
6.752000 0.019542
6.753000 0.019486
6.754000 0.019418
6.755000 0.019346
6.756000 0.019279
6.757000 0.019222
6.758000 0.019179
6.759000 0.019161
6.760000 0.019168
6.761000 0.019190
6.762000 0.019215
6.763000 0.019234
6.764000 0.019236
6.765000 0.019220
6.766000 0.019186
6.767000 0.019152
6.768000 0.019138
6.769000 0.019145
6.770000 0.019168
6.771000 0.019201
6.772000 0.019235
6.773000 0.019265
6.774000 0.019282
6.775000 0.019281
6.776000 0.019303
6.777000 0.019348
6.778000 0.019420
6.779000 0.019521
6.780000 0.019650
6.781000 0.019801
6.782000 0.019965
6.783000 0.020130
6.784000 0.020289
6.785000 0.020436
6.786000 0.020568
6.787000 0.020682
6.788000 0.020779
6.789000 0.020860
6.790000 0.020925
6.791000 0.020962
6.792000 0.020970
6.793000 0.020952
6.794000 0.020933
6.795000 0.020913
6.796000 0.020884
6.797000 0.020837
6.798000 0.020767
6.799000 0.020676
6.800000 0.020571
6.801000 0.020459
6.802000 0.020347
6.803000 0.020244
6.804000 0.020152
6.805000 0.020070
6.806000 0.019992
6.807000 0.019922
6.808000 0.019860
6.809000 0.019804
6.810000 0.019754
6.811000 0.019712
6.812000 0.019683
6.813000 0.019668
6.814000 0.019666
6.815000 0.019674
6.816000 0.019689
6.817000 0.019708
6.818000 0.019729
6.819000 0.019752
6.820000 0.019775
6.821000 0.019798
6.822000 0.019822
6.823000 0.019850
6.824000 0.019886
6.825000 0.019933
6.826000 0.019989
6.827000 0.020053
6.828000 0.020107
6.829000 0.020142
6.830000 0.020158
6.831000 0.020156
6.832000 0.020137
6.833000 0.020128
6.834000 0.020144
6.835000 0.020186
6.836000 0.020240
6.837000 0.020292
6.838000 0.020340
6.839000 0.020383
6.840000 0.020421
6.841000 0.020454
6.842000 0.020476
6.843000 0.020481
6.844000 0.020463
6.845000 0.020419
6.846000 0.020371
6.847000 0.020322
6.848000 0.020270
6.849000 0.020217
6.850000 0.020170
6.851000 0.020135
6.852000 0.020114
6.853000 0.020105
6.854000 0.020102
6.855000 0.020100
6.856000 0.020103
6.857000 0.020121
6.858000 0.020167
6.859000 0.020245
6.860000 0.020310
6.861000 0.020346
6.862000 0.020362
6.863000 0.020365
6.864000 0.020358
6.865000 0.020340
