0.200000 0.046377
0.201000 0.046462
0.202000 0.046527
0.203000 0.046562
0.204000 0.046564
0.205000 0.046537
0.206000 0.046489
0.207000 0.046427
0.208000 0.046355
0.209000 0.046276
0.210000 0.046193
0.211000 0.046116
0.212000 0.046056
0.213000 0.046024
0.214000 0.046029
0.215000 0.046079
0.216000 0.046176
0.217000 0.046316
0.218000 0.046467
0.219000 0.046555
0.220000 0.046557
0.221000 0.046468
0.222000 0.046371
0.223000 0.046301
0.224000 0.046246
0.225000 0.046195
0.226000 0.046140
0.227000 0.046076
0.228000 0.045997
0.229000 0.045941
0.230000 0.045935
0.231000 0.045976
0.232000 0.046059
0.233000 0.046175
0.234000 0.046317
0.235000 0.046473
0.236000 0.046638
0.237000 0.046807
0.238000 0.046980
0.239000 0.047161
0.240000 0.047348
0.241000 0.047532
0.242000 0.047689
0.243000 0.047788
0.244000 0.047810
0.245000 0.047860
0.246000 0.047982
0.247000 0.048145
0.248000 0.048315
0.249000 0.048466
0.250000 0.048589
0.251000 0.048681
0.252000 0.048738
0.253000 0.048755
0.254000 0.048761
0.255000 0.048802
0.256000 0.048879
0.257000 0.048993
0.258000 0.049145
0.259000 0.049337
0.260000 0.049567
0.261000 0.049836
0.262000 0.050142
0.263000 0.050482
0.264000 0.050846
0.265000 0.051215
0.266000 0.051558
0.267000 0.051844
0.268000 0.052051
0.269000 0.052177
0.270000 0.052221
0.271000 0.052184
0.272000 0.052193
0.273000 0.052271
0.274000 0.052418
0.275000 0.052625
0.276000 0.052875
0.277000 0.053153
0.278000 0.053437
0.279000 0.053711
0.280000 0.053958
0.281000 0.054173
0.282000 0.054351
0.283000 0.054494
0.284000 0.054605
0.285000 0.054685
0.286000 0.054734
0.287000 0.054753
0.288000 0.054744
0.289000 0.054714
0.290000 0.054669
0.291000 0.054630
0.292000 0.054665
0.293000 0.054720
0.294000 0.054775
0.295000 0.054833
0.296000 0.054895
0.297000 0.054966
0.298000 0.055049
0.299000 0.055149
0.300000 0.055271
0.301000 0.055423
0.302000 0.055572
0.303000 0.055664
0.304000 0.055697
0.305000 0.055676
0.306000 0.055612
0.307000 0.055514
0.308000 0.055389
0.309000 0.055238
0.310000 0.055063
0.311000 0.054895
0.312000 0.054757
0.313000 0.054639
0.314000 0.054539
0.315000 0.054464
0.316000 0.054439
0.317000 0.054464
0.318000 0.054353
0.319000 0.054084
0.320000 0.053664
0.321000 0.053118
0.322000 0.052488
0.323000 0.051852
0.324000 0.051251
0.325000 0.050710
0.326000 0.050240
0.327000 0.049846
0.328000 0.049531
0.329000 0.049295
0.330000 0.049138
0.331000 0.049053
0.332000 0.049036
0.333000 0.049083
0.334000 0.049092
0.335000 0.049045
0.336000 0.048952
0.337000 0.048819
0.338000 0.048651
0.339000 0.048449
0.340000 0.048214
0.341000 0.047946
0.342000 0.047687
0.343000 0.047466
0.344000 0.047286
0.345000 0.047148
0.346000 0.047055
0.347000 0.047018
0.348000 0.047046
0.349000 0.047069
0.350000 0.046995
0.351000 0.046835
0.352000 0.046609
0.353000 0.046346
0.354000 0.046100
0.355000 0.045889
0.356000 0.045724
0.357000 0.045612
0.358000 0.045557
0.359000 0.045558
0.360000 0.045609
0.361000 0.045613
0.362000 0.045566
0.363000 0.045471
0.364000 0.045336
0.365000 0.045173
0.366000 0.045016
0.367000 0.044865
0.368000 0.044719
0.369000 0.044571
0.370000 0.044417
0.371000 0.044260
0.372000 0.044115
0.373000 0.043999
0.374000 0.043926
0.375000 0.043900
0.376000 0.043911
0.377000 0.043941
0.378000 0.043964
0.379000 0.043959
0.380000 0.043909
0.381000 0.043806
0.382000 0.043644
0.383000 0.043423
0.384000 0.043175
0.385000 0.042938
0.386000 0.042742
0.387000 0.042611
0.388000 0.042560
0.389000 0.042585
0.390000 0.042594
0.391000 0.042542
0.392000 0.042455
0.393000 0.042361
0.394000 0.042277
0.395000 0.042191
0.396000 0.042085
0.397000 0.041975
0.398000 0.041861
0.399000 0.041749
0.400000 0.041650
0.401000 0.041575
0.402000 0.041536
0.403000 0.041536
0.404000 0.041573
0.405000 0.041618
0.406000 0.041589
0.407000 0.041500
0.408000 0.041372
0.409000 0.041246
0.410000 0.041149
0.411000 0.041103
0.412000 0.041129
0.413000 0.041073
0.414000 0.040927
0.415000 0.040700
0.416000 0.040421
0.417000 0.040122
0.418000 0.039840
0.419000 0.039603
0.420000 0.039424
0.421000 0.039299
0.422000 0.039225
0.423000 0.039219
0.424000 0.039266
0.425000 0.039337
0.426000 0.039399
0.427000 0.039424
0.428000 0.039401
0.429000 0.039336
0.430000 0.039248
0.431000 0.039161
0.432000 0.039096
0.433000 0.039063
0.434000 0.039062
0.435000 0.039070
0.436000 0.039060
0.437000 0.039052
0.438000 0.039057
0.439000 0.039047
0.440000 0.039026
0.441000 0.039008
0.442000 0.039005
0.443000 0.038964
0.444000 0.038870
0.445000 0.038716
0.446000 0.038518
0.447000 0.038285
0.448000 0.038027
0.449000 0.037754
0.450000 0.037472
0.451000 0.037191
0.452000 0.036927
0.453000 0.036704
0.454000 0.036550
0.455000 0.036486
0.456000 0.036503
0.457000 0.036436
0.458000 0.036309
0.459000 0.036147
0.460000 0.035967
0.461000 0.035778
0.462000 0.035584
0.463000 0.035397
0.464000 0.035221
0.465000 0.035058
0.466000 0.034899
0.467000 0.034731
0.468000 0.034535
0.469000 0.034300
0.470000 0.034019
0.471000 0.033694
0.472000 0.033334
0.473000 0.032954
0.474000 0.032570
0.475000 0.032205
0.476000 0.031877
0.477000 0.031601
0.478000 0.031388
0.479000 0.031245
0.480000 0.031172
0.481000 0.031166
0.482000 0.031125
0.483000 0.031051
0.484000 0.030965
0.485000 0.030881
0.486000 0.030804
0.487000 0.030729
0.488000 0.030643
0.489000 0.030533
0.490000 0.030389
0.491000 0.030213
0.492000 0.030013
0.493000 0.029804
0.494000 0.029601
0.495000 0.029418
0.496000 0.029262
0.497000 0.029132
0.498000 0.029021
0.499000 0.028927
0.500000 0.028850
0.501000 0.028795
0.502000 0.028765
0.503000 0.028754
0.504000 0.028757
0.505000 0.028748
0.506000 0.028730
0.507000 0.028705
0.508000 0.028678
0.509000 0.028658
0.510000 0.028654
0.511000 0.028613
0.512000 0.028532
0.513000 0.028421
0.514000 0.028300
0.515000 0.028191
0.516000 0.028117
0.517000 0.028092
0.518000 0.028093
0.519000 0.028061
0.520000 0.028018
0.521000 0.027985
0.522000 0.027980
0.523000 0.027980
0.524000 0.027951
0.525000 0.027906
0.526000 0.027863
0.527000 0.027833
0.528000 0.027819
0.529000 0.027819
0.530000 0.027833
0.531000 0.027854
0.532000 0.027854
0.533000 0.027821
0.534000 0.027754
0.535000 0.027667
0.536000 0.027583
0.537000 0.027529
0.538000 0.027527
0.539000 0.027513
0.540000 0.027435
0.541000 0.027305
0.542000 0.027143
0.543000 0.026973
0.544000 0.026817
0.545000 0.026693
0.546000 0.026614
0.547000 0.026586
0.548000 0.026607
0.549000 0.026592
0.550000 0.026547
0.551000 0.026484
0.552000 0.026404
0.553000 0.026305
0.554000 0.026180
0.555000 0.026035
0.556000 0.025881
0.557000 0.025739
0.558000 0.025630
0.559000 0.025571
0.560000 0.025568
0.561000 0.025536
0.562000 0.025459
0.563000 0.025361
0.564000 0.025264
0.565000 0.025188
0.566000 0.025139
0.567000 0.025115
0.568000 0.025103
0.569000 0.025094
0.570000 0.025083
0.571000 0.025073
0.572000 0.025072
0.573000 0.025090
0.574000 0.025088
0.575000 0.025054
0.576000 0.024995
0.577000 0.024927
0.578000 0.024868
0.579000 0.024830
0.580000 0.024815
0.581000 0.024821
0.582000 0.024819
0.583000 0.024793
0.584000 0.024734
0.585000 0.024631
0.586000 0.024485
0.587000 0.024313
0.588000 0.024141
0.589000 0.023997
0.590000 0.023898
0.591000 0.023849
0.592000 0.023843
0.593000 0.023830
0.594000 0.023796
0.595000 0.023751
0.596000 0.023696
0.597000 0.023628
0.598000 0.023543
0.599000 0.023440
0.600000 0.023326
0.601000 0.023213
0.602000 0.023114
0.603000 0.023041
0.604000 0.022998
0.605000 0.022978
0.606000 0.022974
0.607000 0.022975
0.608000 0.022978
0.609000 0.022979
0.610000 0.022972
0.611000 0.022951
0.612000 0.022910
0.613000 0.022843
0.614000 0.022746
0.615000 0.022622
0.616000 0.022474
0.617000 0.022313
0.618000 0.022156
0.619000 0.022027
0.620000 0.021947
0.621000 0.021928
0.622000 0.021899
0.623000 0.021832
0.624000 0.021748
0.625000 0.021667
0.626000 0.021604
0.627000 0.021568
0.628000 0.021565
0.629000 0.021555
0.630000 0.021510
0.631000 0.021431
0.632000 0.021318
0.633000 0.021178
0.634000 0.021018
0.635000 0.020845
0.636000 0.020663
0.637000 0.020475
0.638000 0.020279
0.639000 0.020075
0.640000 0.019866
0.641000 0.019666
0.642000 0.019499
0.643000 0.019394
0.644000 0.019373
0.645000 0.019324
0.646000 0.019204
0.647000 0.019042
0.648000 0.018872
0.649000 0.018721
0.650000 0.018601
0.651000 0.018516
0.652000 0.018467
0.653000 0.018456
0.654000 0.018451
0.655000 0.018410
0.656000 0.018330
0.657000 0.018213
0.658000 0.018059
0.659000 0.017869
0.660000 0.017641
0.661000 0.017376
0.662000 0.017075
0.663000 0.016738
0.664000 0.016375
0.665000 0.016004
0.666000 0.015651
0.667000 0.015350
0.668000 0.015120
0.669000 0.014965
0.670000 0.014883
0.671000 0.014874
0.672000 0.014813
0.673000 0.014677
0.674000 0.014467
0.675000 0.014193
0.676000 0.013871
0.677000 0.013518
0.678000 0.013150
0.679000 0.012785
0.680000 0.012434
0.681000 0.012104
0.682000 0.011799
0.683000 0.011517
0.684000 0.011257
0.685000 0.011021
0.686000 0.010816
0.687000 0.010649
0.688000 0.010525
0.689000 0.010447
0.690000 0.010413
0.691000 0.010409
0.692000 0.010367
0.693000 0.010289
0.694000 0.010180
0.695000 0.010046
0.696000 0.009893
0.697000 0.009726
0.698000 0.009550
0.699000 0.009372
0.700000 0.009196
0.701000 0.009026
0.702000 0.008862
0.703000 0.008706
0.704000 0.008558
0.705000 0.008418
0.706000 0.008293
0.707000 0.008186
0.708000 0.008106
0.709000 0.008059
0.710000 0.008047
0.711000 0.008036
0.712000 0.008000
0.713000 0.007949
0.714000 0.007895
0.715000 0.007843
0.716000 0.007797
0.717000 0.007755
0.718000 0.007717
0.719000 0.007683
0.720000 0.007660
0.721000 0.007648
0.722000 0.007651
0.723000 0.007642
0.724000 0.007619
0.725000 0.007585
0.726000 0.007540
0.727000 0.007489
0.728000 0.007434
0.729000 0.007380
0.730000 0.007330
0.731000 0.007285
0.732000 0.007246
0.733000 0.007211
0.734000 0.007180
0.735000 0.007149
0.736000 0.007115
0.737000 0.007076
0.738000 0.007033
0.739000 0.006995
0.740000 0.006968
0.741000 0.006965
0.742000 0.006953
0.743000 0.006915
0.744000 0.006859
0.745000 0.006794
0.746000 0.006733
0.747000 0.006684
0.748000 0.006650
0.749000 0.006633
0.750000 0.006627
0.751000 0.006629
0.752000 0.006632
0.753000 0.006634
0.754000 0.006649
0.755000 0.006679
0.756000 0.006726
0.757000 0.006785
0.758000 0.006851
0.759000 0.006919
0.760000 0.006986
0.761000 0.007051
0.762000 0.007114
0.763000 0.007182
0.764000 0.007260
0.765000 0.007346
0.766000 0.007419
0.767000 0.007483
0.768000 0.007542
0.769000 0.007600
0.770000 0.007658
0.771000 0.007713
0.772000 0.007757
0.773000 0.007785
0.774000 0.007791
0.775000 0.007776
0.776000 0.007745
0.777000 0.007705
0.778000 0.007668
0.779000 0.007640
0.780000 0.007628
0.781000 0.007631
0.782000 0.007650
0.783000 0.007684
0.784000 0.007717
0.785000 0.007733
0.786000 0.007733
0.787000 0.007720
0.788000 0.007703
0.789000 0.007689
0.790000 0.007686
0.791000 0.007698
0.792000 0.007720
0.793000 0.007748
0.794000 0.007775
0.795000 0.007804
0.796000 0.007833
0.797000 0.007828
0.798000 0.007781
0.799000 0.007696
0.800000 0.007586
0.801000 0.007471
0.802000 0.007366
0.803000 0.007282
0.804000 0.007222
0.805000 0.007183
0.806000 0.007164
0.807000 0.007161
0.808000 0.007172
0.809000 0.007173
0.810000 0.007164
0.811000 0.007149
0.812000 0.007132
0.813000 0.007117
0.814000 0.007108
0.815000 0.007105
0.816000 0.007105
0.817000 0.007104
0.818000 0.007096
0.819000 0.007080
0.820000 0.007062
0.821000 0.007055
0.822000 0.007059
0.823000 0.007043
0.824000 0.007006
0.825000 0.006955
0.826000 0.006897
0.827000 0.006845
0.828000 0.006804
0.829000 0.006776
0.830000 0.006760
0.831000 0.006755
0.832000 0.006759
0.833000 0.006773
0.834000 0.006794
0.835000 0.006820
0.836000 0.006847
0.837000 0.006876
0.838000 0.006903
0.839000 0.006929
0.840000 0.006954
0.841000 0.006980
0.842000 0.007009
0.843000 0.007037
0.844000 0.007068
0.845000 0.007106
0.846000 0.007144
0.847000 0.007184
0.848000 0.007229
0.849000 0.007281
0.850000 0.007344
0.851000 0.007420
0.852000 0.007509
0.853000 0.007608
0.854000 0.007712
0.855000 0.007813
0.856000 0.007901
0.857000 0.007968
0.858000 0.008002
0.859000 0.007998
0.860000 0.008011
0.861000 0.008068
0.862000 0.008163
0.863000 0.008276
0.864000 0.008396
0.865000 0.008518
0.866000 0.008644
0.867000 0.008777
0.868000 0.008922
0.869000 0.009080
0.870000 0.009249
0.871000 0.009422
0.872000 0.009591
0.873000 0.009748
0.874000 0.009890
0.875000 0.010012
0.876000 0.010113
0.877000 0.010194
0.878000 0.010256
0.879000 0.010303
0.880000 0.010336
0.881000 0.010358
0.882000 0.010370
0.883000 0.010372
0.884000 0.010367
0.885000 0.010369
0.886000 0.010375
0.887000 0.010388
0.888000 0.010404
0.889000 0.010425
0.890000 0.010449
0.891000 0.010473
0.892000 0.010500
0.893000 0.010528
0.894000 0.010558
0.895000 0.010590
0.896000 0.010622
0.897000 0.010655
0.898000 0.010689
0.899000 0.010721
0.900000 0.010752
0.901000 0.010781
0.902000 0.010809
0.903000 0.010837
0.904000 0.010866
0.905000 0.010896
0.906000 0.010928
0.907000 0.010963
0.908000 0.011002
0.909000 0.011047
0.910000 0.011096
0.911000 0.011146
0.912000 0.011200
0.913000 0.011256
0.914000 0.011316
0.915000 0.011381
0.916000 0.011452
0.917000 0.011531
0.918000 0.011619
0.919000 0.011716
0.920000 0.011824
0.921000 0.011944
0.922000 0.012078
0.923000 0.012226
0.924000 0.012390
0.925000 0.012568
0.926000 0.012761
0.927000 0.012967
0.928000 0.013185
0.929000 0.013414
0.930000 0.013650
0.931000 0.013888
0.932000 0.014121
0.933000 0.014335
0.934000 0.014519
0.935000 0.014662
0.936000 0.014762
0.937000 0.014823
0.938000 0.014856
0.939000 0.014866
0.940000 0.014849
0.941000 0.014870
0.942000 0.014974
0.943000 0.015187
0.944000 0.015520
0.945000 0.015956
0.946000 0.016461
0.947000 0.016988
0.948000 0.017489
0.949000 0.017931
0.950000 0.018297
0.951000 0.018585
0.952000 0.018799
0.953000 0.018944
0.954000 0.019025
0.955000 0.019047
0.956000 0.019045
0.957000 0.019098
0.958000 0.019199
0.959000 0.019342
0.960000 0.019520
0.961000 0.019725
0.962000 0.019944
0.963000 0.020163
0.964000 0.020363
0.965000 0.020523
0.966000 0.020621
0.967000 0.020646
0.968000 0.020654
0.969000 0.020720
0.970000 0.020825
0.971000 0.020945
0.972000 0.021059
0.973000 0.021149
0.974000 0.021205
0.975000 0.021220
0.976000 0.021208
0.977000 0.021238
0.978000 0.021308
0.979000 0.021415
0.980000 0.021557
0.981000 0.021734
0.982000 0.021941
0.983000 0.022173
0.984000 0.022424
0.985000 0.022686
0.986000 0.022953
0.987000 0.023221
0.988000 0.023488
0.989000 0.023756
0.990000 0.024024
0.991000 0.024289
0.992000 0.024550
0.993000 0.024806
0.994000 0.025058
0.995000 0.025312
0.996000 0.025570
0.997000 0.025833
0.998000 0.026093
0.999000 0.026334
1.000000 0.026522
1.001000 0.026631
1.002000 0.026642
1.003000 0.026731
1.004000 0.026908
1.005000 0.027149
1.006000 0.027429
1.007000 0.027725
1.008000 0.028026
1.009000 0.028323
1.010000 0.028608
1.011000 0.028865
1.012000 0.029081
1.013000 0.029250
1.014000 0.029375
1.015000 0.029462
1.016000 0.029525
1.017000 0.029576
1.018000 0.029624
1.019000 0.029670
1.020000 0.029709
1.021000 0.029735
1.022000 0.029748
1.023000 0.029748
1.024000 0.029744
1.025000 0.029754
1.026000 0.029779
1.027000 0.029815
1.028000 0.029854
1.029000 0.029885
1.030000 0.029896
1.031000 0.029889
1.032000 0.029909
1.033000 0.029949
1.034000 0.030003
1.035000 0.030066
1.036000 0.030136
1.037000 0.030220
1.038000 0.030323
1.039000 0.030441
1.040000 0.030559
1.041000 0.030658
1.042000 0.030719
1.043000 0.030731
1.044000 0.030752
1.045000 0.030809
1.046000 0.030884
1.047000 0.030957
1.048000 0.031020
1.049000 0.031072
1.050000 0.031123
1.051000 0.031182
1.052000 0.031250
1.053000 0.031315
1.054000 0.031352
1.055000 0.031355
1.056000 0.031446
1.057000 0.031639
1.058000 0.031927
1.059000 0.032287
1.060000 0.032683
1.061000 0.033079
1.062000 0.033443
1.063000 0.033758
1.064000 0.034017
1.065000 0.034219
1.066000 0.034369
1.067000 0.034473
1.068000 0.034539
1.069000 0.034573
1.070000 0.034579
1.071000 0.034596
1.072000 0.034644
1.073000 0.034728
1.074000 0.034847
1.075000 0.035002
1.076000 0.035192
1.077000 0.035413
1.078000 0.035660
1.079000 0.035923
1.080000 0.036189
1.081000 0.036442
1.082000 0.036672
1.083000 0.036875
1.084000 0.037060
1.085000 0.037239
1.086000 0.037427
1.087000 0.037634
1.088000 0.037865
1.089000 0.038119
1.090000 0.038391
1.091000 0.038676
1.092000 0.038965
1.093000 0.039247
1.094000 0.039501
1.095000 0.039710
1.096000 0.039854
1.097000 0.039913
1.098000 0.039954
1.099000 0.040092
1.100000 0.040307
1.101000 0.040565
1.102000 0.040830
1.103000 0.041065
1.104000 0.041244
1.105000 0.041355
1.106000 0.041400
1.107000 0.041395
1.108000 0.041411
1.109000 0.041410
1.110000 0.041487
1.111000 0.041683
1.112000 0.042019
1.113000 0.042483
1.114000 0.043028
1.115000 0.043594
1.116000 0.044125
1.117000 0.044584
1.118000 0.044953
1.119000 0.045229
1.120000 0.045416
1.121000 0.045522
1.122000 0.045558
1.123000 0.045572
1.124000 0.045624
1.125000 0.045695
1.126000 0.045760
1.127000 0.045798
1.128000 0.045791
1.129000 0.045820
1.130000 0.045880
1.131000 0.045949
1.132000 0.046004
1.133000 0.046023
1.134000 0.046000
1.135000 0.046032
1.136000 0.046122
1.137000 0.046266
1.138000 0.046455
1.139000 0.046668
1.140000 0.046875
1.141000 0.047050
1.142000 0.047177
1.143000 0.047257
1.144000 0.047308
1.145000 0.047357
1.146000 0.047431
1.147000 0.047548
1.148000 0.047715
1.149000 0.047928
1.150000 0.048169
1.151000 0.048420
1.152000 0.048662
1.153000 0.048876
1.154000 0.049000
1.155000 0.049023
1.156000 0.048940
1.157000 0.048911
1.158000 0.048936
1.159000 0.049004
1.160000 0.049102
1.161000 0.049214
1.162000 0.049322
1.163000 0.049412
1.164000 0.049481
1.165000 0.049536
1.166000 0.049589
1.167000 0.049643
1.168000 0.049699
1.169000 0.049758
1.170000 0.049824
1.171000 0.049899
1.172000 0.049988
1.173000 0.050087
1.174000 0.050187
1.175000 0.050273
1.176000 0.050329
1.177000 0.050347
1.178000 0.050325
1.179000 0.050299
1.180000 0.050314
1.181000 0.050358
1.182000 0.050413
1.183000 0.050460
1.184000 0.050486
1.185000 0.050490
1.186000 0.050485
1.187000 0.050487
1.188000 0.050516
1.189000 0.050588
1.190000 0.050709
1.191000 0.050881
1.192000 0.051101
1.193000 0.051355
1.194000 0.051630
1.195000 0.051909
1.196000 0.052183
1.197000 0.052446
1.198000 0.052691
1.199000 0.052898
1.200000 0.053038
1.201000 0.053074
1.202000 0.053113
1.203000 0.053297
1.204000 0.053607
1.205000 0.054007
1.206000 0.054449
1.207000 0.054887
1.208000 0.055281
1.209000 0.055610
1.210000 0.055860
1.211000 0.056031
1.212000 0.056128
1.213000 0.056164
1.214000 0.056152
1.215000 0.056178
1.216000 0.056233
1.217000 0.056312
1.218000 0.056413
1.219000 0.056536
1.220000 0.056680
1.221000 0.056842
1.222000 0.057016
1.223000 0.057189
1.224000 0.057341
1.225000 0.057457
1.226000 0.057530
1.227000 0.057564
1.228000 0.057570
1.229000 0.057557
1.230000 0.057524
1.231000 0.057507
1.232000 0.057514
1.233000 0.057540
1.234000 0.057575
1.235000 0.057600
1.236000 0.057597
1.237000 0.057570
1.238000 0.057597
1.239000 0.057676
1.240000 0.057793
1.241000 0.057929
1.242000 0.058069
1.243000 0.058203
1.244000 0.058337
1.245000 0.058482
1.246000 0.058647
1.247000 0.058836
1.248000 0.059043
1.249000 0.059260
1.250000 0.059481
1.251000 0.059696
1.252000 0.059886
1.253000 0.060019
1.254000 0.060067
1.255000 0.060018
1.256000 0.059936
1.257000 0.059967
1.258000 0.060088
1.259000 0.060278
1.260000 0.060469
1.261000 0.060634
1.262000 0.060787
1.263000 0.060955
1.264000 0.061161
1.265000 0.061414
1.266000 0.061700
1.267000 0.061988
1.268000 0.062242
1.269000 0.062433
1.270000 0.062546
1.271000 0.062582
1.272000 0.062552
1.273000 0.062467
1.274000 0.062343
1.275000 0.062249
1.276000 0.062216
1.277000 0.062239
1.278000 0.062313
1.279000 0.062435
1.280000 0.062598
1.281000 0.062788
1.282000 0.062988
1.283000 0.063178
1.284000 0.063338
1.285000 0.063445
1.286000 0.063498
1.287000 0.063497
1.288000 0.063517
1.289000 0.063587
1.290000 0.063696
1.291000 0.063831
1.292000 0.063972
1.293000 0.064095
1.294000 0.064181
1.295000 0.064223
1.296000 0.064222
1.297000 0.064196
1.298000 0.064206
1.299000 0.064246
1.300000 0.064310
1.301000 0.064394
1.302000 0.064495
1.303000 0.064612
1.304000 0.064744
1.305000 0.064886
1.306000 0.065027
1.307000 0.065148
1.308000 0.065232
1.309000 0.065271
1.310000 0.065268
1.311000 0.065232
1.312000 0.065177
1.313000 0.065118
1.314000 0.065068
1.315000 0.065037
1.316000 0.065028
1.317000 0.065035
1.318000 0.065046
1.319000 0.065046
1.320000 0.065022
1.321000 0.064969
1.322000 0.064891
1.323000 0.064796
1.324000 0.064690
1.325000 0.064575
1.326000 0.064440
1.327000 0.064265
1.328000 0.064028
1.329000 0.063839
1.330000 0.063701
1.331000 0.063599
1.332000 0.063514
1.333000 0.063432
1.334000 0.063353
1.335000 0.063281
1.336000 0.063218
1.337000 0.063159
1.338000 0.063104
1.339000 0.063101
1.340000 0.063153
1.341000 0.063188
1.342000 0.063159
1.343000 0.063034
1.344000 0.062798
1.345000 0.062460
1.346000 0.062052
1.347000 0.061613
1.348000 0.061187
1.349000 0.060802
1.350000 0.060472
1.351000 0.060195
1.352000 0.059967
1.353000 0.059814
1.354000 0.059743
1.355000 0.059737
1.356000 0.059754
1.357000 0.059711
1.358000 0.059614
1.359000 0.059468
1.360000 0.059280
1.361000 0.059074
1.362000 0.058864
1.363000 0.058666
1.364000 0.058501
1.365000 0.058390
1.366000 0.058354
1.367000 0.058401
1.368000 0.058472
1.369000 0.058487
1.370000 0.058461
1.371000 0.058413
1.372000 0.058362
1.373000 0.058319
1.374000 0.058283
1.375000 0.058249
1.376000 0.058281
1.377000 0.058304
1.378000 0.058309
1.379000 0.058281
1.380000 0.058208
1.381000 0.058085
1.382000 0.057912
1.383000 0.057694
1.384000 0.057439
1.385000 0.057177
1.386000 0.056932
1.387000 0.056705
1.388000 0.056497
1.389000 0.056305
1.390000 0.056129
1.391000 0.055972
1.392000 0.055839
1.393000 0.055733
1.394000 0.055657
1.395000 0.055607
1.396000 0.055573
1.397000 0.055538
1.398000 0.055481
1.399000 0.055376
1.400000 0.055214
1.401000 0.055203
1.402000 0.055405
1.403000 0.055614
1.404000 0.055778
1.405000 0.055885
1.406000 0.055940
1.407000 0.055955
1.408000 0.055942
1.409000 0.055903
1.410000 0.055846
1.411000 0.055781
1.412000 0.055719
1.413000 0.055667
1.414000 0.055624
1.415000 0.055586
1.416000 0.055544
1.417000 0.055490
1.418000 0.055460
1.419000 0.055451
1.420000 0.055464
1.421000 0.055504
1.422000 0.055570
1.423000 0.055660
1.424000 0.055762
1.425000 0.055856
1.426000 0.055935
1.427000 0.055994
1.428000 0.056036
1.429000 0.056071
1.430000 0.056115
1.431000 0.056171
1.432000 0.056205
1.433000 0.056225
1.434000 0.056241
1.435000 0.056256
1.436000 0.056271
1.437000 0.056283
1.438000 0.056288
1.439000 0.056296
1.440000 0.056327
1.441000 0.056398
1.442000 0.056511
1.443000 0.056651
1.444000 0.056727
1.445000 0.056695
1.446000 0.056651
1.447000 0.056652
1.448000 0.056670
1.449000 0.056667
1.450000 0.056613
1.451000 0.056603
1.452000 0.056639
1.453000 0.056731
1.454000 0.056897
1.455000 0.057122
1.456000 0.057252
1.457000 0.057225
1.458000 0.056989
1.459000 0.056716
1.460000 0.056578
1.461000 0.056584
1.462000 0.056706
1.463000 0.056885
1.464000 0.057060
1.465000 0.057188
1.466000 0.057254
1.467000 0.057255
1.468000 0.057192
1.469000 0.057246
1.470000 0.057426
1.471000 0.057693
1.472000 0.058016
1.473000 0.058362
1.474000 0.058674
1.475000 0.058892
1.476000 0.058967
1.477000 0.058887
1.478000 0.058665
1.479000 0.058458
1.480000 0.058341
1.481000 0.058342
1.482000 0.058477
1.483000 0.058739
1.484000 0.059097
1.485000 0.059505
1.486000 0.059923
1.487000 0.060327
1.488000 0.060707
1.489000 0.061051
1.490000 0.061339
1.491000 0.061547
1.492000 0.061656
1.493000 0.061671
1.494000 0.061613
1.495000 0.061513
1.496000 0.061402
1.497000 0.061369
1.498000 0.061399
1.499000 0.061365
1.500000 0.061279
1.501000 0.061165
1.502000 0.061054
1.503000 0.060979
1.504000 0.060962
1.505000 0.061014
1.506000 0.061133
1.507000 0.061300
1.508000 0.061444
1.509000 0.061602
1.510000 0.061679
1.511000 0.061633
1.512000 0.061444
1.513000 0.061124
1.514000 0.060719
1.515000 0.060292
1.516000 0.059898
1.517000 0.059579
1.518000 0.059355
1.519000 0.059229
1.520000 0.059198
1.521000 0.059251
1.522000 0.059367
1.523000 0.059475
1.524000 0.059495
1.525000 0.059436
1.526000 0.059404
1.527000 0.059441
1.528000 0.059542
1.529000 0.059604
1.530000 0.059619
1.531000 0.059601
1.532000 0.059577
1.533000 0.059567
1.534000 0.059584
1.535000 0.059532
1.536000 0.059419
1.537000 0.059262
1.538000 0.059070
1.539000 0.058863
1.540000 0.058669
1.541000 0.058512
1.542000 0.058407
1.543000 0.058348
1.544000 0.058315
1.545000 0.058280
1.546000 0.058215
1.547000 0.058101
1.548000 0.057931
1.549000 0.057716
1.550000 0.057473
1.551000 0.057229
1.552000 0.057006
1.553000 0.056825
1.554000 0.056703
1.555000 0.056652
1.556000 0.056677
1.557000 0.056625
1.558000 0.056504
1.559000 0.056334
1.560000 0.056134
1.561000 0.055926
1.562000 0.055727
1.563000 0.055552
1.564000 0.055402
1.565000 0.055266
1.566000 0.055135
1.567000 0.055007
1.568000 0.054881
1.569000 0.054757
1.570000 0.054632
1.571000 0.054503
1.572000 0.054368
1.573000 0.054226
1.574000 0.054088
1.575000 0.053967
1.576000 0.053881
1.577000 0.053836
1.578000 0.053837
1.579000 0.053844
1.580000 0.053813
1.581000 0.053753
1.582000 0.053683
1.583000 0.053621
1.584000 0.053580
1.585000 0.053559
1.586000 0.053546
1.587000 0.053522
1.588000 0.053469
1.589000 0.053372
1.590000 0.053225
1.591000 0.053025
1.592000 0.052777
1.593000 0.052491
1.594000 0.052184
1.595000 0.051872
1.596000 0.051565
1.597000 0.051268
1.598000 0.050992
1.599000 0.050755
1.600000 0.050589
1.601000 0.050527
1.602000 0.050464
1.603000 0.050259
1.604000 0.049930
1.605000 0.049512
1.606000 0.049054
1.607000 0.048602
1.608000 0.048197
1.609000 0.047861
1.610000 0.047605
1.611000 0.047429
1.612000 0.047326
1.613000 0.047285
1.614000 0.047290
1.615000 0.047258
1.616000 0.047198
1.617000 0.047118
1.618000 0.047019
1.619000 0.046899
1.620000 0.046756
1.621000 0.046588
1.622000 0.046406
1.623000 0.046223
1.624000 0.046057
1.625000 0.045924
1.626000 0.045834
1.627000 0.045782
1.628000 0.045757
1.629000 0.045750
1.630000 0.045762
1.631000 0.045755
1.632000 0.045723
1.633000 0.045670
1.634000 0.045609
1.635000 0.045560
1.636000 0.045539
1.637000 0.045545
1.638000 0.045496
1.639000 0.045395
1.640000 0.045255
1.641000 0.045094
1.642000 0.044929
1.643000 0.044766
1.644000 0.044601
1.645000 0.044421
1.646000 0.044211
1.647000 0.043967
1.648000 0.043693
1.649000 0.043395
1.650000 0.043080
1.651000 0.042755
1.652000 0.042447
1.653000 0.042188
1.654000 0.042014
1.655000 0.041944
1.656000 0.041919
1.657000 0.041807
1.658000 0.041640
1.659000 0.041446
1.660000 0.041239
1.661000 0.041022
1.662000 0.040786
1.663000 0.040518
1.664000 0.040204
1.665000 0.039840
1.666000 0.039439
1.667000 0.039029
1.668000 0.038640
1.669000 0.038300
1.670000 0.038026
1.671000 0.037825
1.672000 0.037694
1.673000 0.037629
1.674000 0.037620
1.675000 0.037600
1.676000 0.037541
1.677000 0.037446
1.678000 0.037315
1.679000 0.037150
1.680000 0.036955
1.681000 0.036742
1.682000 0.036527
1.683000 0.036332
1.684000 0.036173
1.685000 0.036063
1.686000 0.036002
1.687000 0.035991
1.688000 0.035955
1.689000 0.035866
1.690000 0.035734
1.691000 0.035573
1.692000 0.035406
1.693000 0.035256
1.694000 0.035143
1.695000 0.035074
1.696000 0.035048
1.697000 0.035045
1.698000 0.035007
1.699000 0.034937
1.700000 0.034842
1.701000 0.034729
1.702000 0.034598
1.703000 0.034451
1.704000 0.034289
1.705000 0.034115
1.706000 0.033940
1.707000 0.033782
1.708000 0.033656
1.709000 0.033572
1.710000 0.033526
1.711000 0.033508
1.712000 0.033505
1.713000 0.033503
1.714000 0.033487
1.715000 0.033448
1.716000 0.033383
1.717000 0.033297
1.718000 0.033198
1.719000 0.033101
1.720000 0.033018
1.721000 0.032953
1.722000 0.032898
1.723000 0.032846
1.724000 0.032789
1.725000 0.032724
1.726000 0.032662
1.727000 0.032623
1.728000 0.032630
1.729000 0.032573
1.730000 0.032455
1.731000 0.032294
1.732000 0.032121
1.733000 0.031962
1.734000 0.031832
1.735000 0.031738
1.736000 0.031680
1.737000 0.031657
1.738000 0.031661
1.739000 0.031635
1.740000 0.031583
1.741000 0.031509
1.742000 0.031415
1.743000 0.031307
1.744000 0.031191
1.745000 0.031072
1.746000 0.030955
1.747000 0.030847
1.748000 0.030750
1.749000 0.030670
1.750000 0.030613
1.751000 0.030582
1.752000 0.030577
1.753000 0.030568
1.754000 0.030544
1.755000 0.030513
1.756000 0.030485
1.757000 0.030462
1.758000 0.030447
1.759000 0.030439
1.760000 0.030440
1.761000 0.030435
1.762000 0.030420
1.763000 0.030392
1.764000 0.030349
1.765000 0.030291
1.766000 0.030218
1.767000 0.030132
1.768000 0.030038
1.769000 0.029939
1.770000 0.029839
1.771000 0.029744
1.772000 0.029657
1.773000 0.029588
1.774000 0.029549
1.775000 0.029549
1.776000 0.029514
1.777000 0.029445
1.778000 0.029355
1.779000 0.029263
1.780000 0.029181
1.781000 0.029116
1.782000 0.029072
1.783000 0.029046
1.784000 0.029039
1.785000 0.029028
1.786000 0.028995
1.787000 0.028943
1.788000 0.028872
1.789000 0.028788
1.790000 0.028690
1.791000 0.028579
1.792000 0.028451
1.793000 0.028302
1.794000 0.028130
1.795000 0.027931
1.796000 0.027714
1.797000 0.027491
1.798000 0.027293
1.799000 0.027161
1.800000 0.027137
1.801000 0.027040
1.802000 0.026826
1.803000 0.026529
1.804000 0.026189
1.805000 0.025841
1.806000 0.025509
1.807000 0.025201
1.808000 0.024920
1.809000 0.024668
1.810000 0.024450
1.811000 0.024269
1.812000 0.024127
1.813000 0.024024
1.814000 0.023956
1.815000 0.023921
1.816000 0.023913
1.817000 0.023930
1.818000 0.023927
1.819000 0.023906
1.820000 0.023871
1.821000 0.023821
1.822000 0.023759
1.823000 0.023684
1.824000 0.023600
1.825000 0.023510
1.826000 0.023421
1.827000 0.023339
1.828000 0.023269
1.829000 0.023213
1.830000 0.023168
1.831000 0.023126
1.832000 0.023082
1.833000 0.023032
1.834000 0.022975
1.835000 0.022912
1.836000 0.022844
1.837000 0.022768
1.838000 0.022681
1.839000 0.022576
1.840000 0.022448
1.841000 0.022299
1.842000 0.022146
1.843000 0.022015
1.844000 0.021939
1.845000 0.021934
1.846000 0.021923
1.847000 0.021866
1.848000 0.021799
1.849000 0.021758
1.850000 0.021767
1.851000 0.021722
1.852000 0.021617
1.853000 0.021457
1.854000 0.021250
1.855000 0.021015
1.856000 0.020786
1.857000 0.020613
1.858000 0.020551
1.859000 0.020456
1.860000 0.020192
1.861000 0.019790
1.862000 0.019307
1.863000 0.018818
1.864000 0.018392
1.865000 0.018072
1.866000 0.017870
1.867000 0.017781
1.868000 0.017795
1.869000 0.017724
1.870000 0.017547
1.871000 0.017261
1.872000 0.016902
1.873000 0.016503
1.874000 0.016117
1.875000 0.015801
1.876000 0.015597
1.877000 0.015515
1.878000 0.015542
1.879000 0.015530
1.880000 0.015416
1.881000 0.015192
1.882000 0.014852
1.883000 0.014407
1.884000 0.013883
1.885000 0.013313
1.886000 0.012723
1.887000 0.012125
1.888000 0.011525
1.889000 0.010937
1.890000 0.010384
1.891000 0.009897
1.892000 0.009502
1.893000 0.009208
1.894000 0.009011
1.895000 0.008903
1.896000 0.008871
1.897000 0.008849
1.898000 0.008783
1.899000 0.008684
1.900000 0.008562
1.901000 0.008421
1.902000 0.008269
1.903000 0.008108
1.904000 0.007943
1.905000 0.007776
1.906000 0.007607
1.907000 0.007439
1.908000 0.007273
1.909000 0.007112
1.910000 0.006958
1.911000 0.006810
1.912000 0.006669
1.913000 0.006535
1.914000 0.006406
1.915000 0.006282
1.916000 0.006160
1.917000 0.006040
1.918000 0.005917
1.919000 0.005791
1.920000 0.005658
1.921000 0.005518
1.922000 0.005381
1.923000 0.005266
1.924000 0.005196
1.925000 0.005181
1.926000 0.005142
1.927000 0.005062
1.928000 0.004965
1.929000 0.004871
1.930000 0.004794
1.931000 0.004739
1.932000 0.004704
1.933000 0.004681
1.934000 0.004667
1.935000 0.004662
1.936000 0.004670
1.937000 0.004678
1.938000 0.004684
1.939000 0.004688
1.940000 0.004685
1.941000 0.004673
1.942000 0.004649
1.943000 0.004630
1.944000 0.004624
1.945000 0.004630
1.946000 0.004648
1.947000 0.004675
1.948000 0.004708
1.949000 0.004746
1.950000 0.004786
1.951000 0.004823
1.952000 0.004857
1.953000 0.004885
1.954000 0.004907
1.955000 0.004920
1.956000 0.004924
1.957000 0.004919
1.958000 0.004904
1.959000 0.004883
1.960000 0.004874
1.961000 0.004876
1.962000 0.004889
1.963000 0.004912
1.964000 0.004946
1.965000 0.004988
1.966000 0.005035
1.967000 0.005083
1.968000 0.005128
1.969000 0.005163
1.970000 0.005179
1.971000 0.005172
1.972000 0.005166
1.973000 0.005186
1.974000 0.005228
1.975000 0.005288
1.976000 0.005360
1.977000 0.005437
1.978000 0.005518
1.979000 0.005599
1.980000 0.005676
1.981000 0.005745
1.982000 0.005802
1.983000 0.005845
1.984000 0.005874
1.985000 0.005892
1.986000 0.005901
1.987000 0.005903
1.988000 0.005899
1.989000 0.005890
1.990000 0.005877
1.991000 0.005863
1.992000 0.005854
1.993000 0.005850
1.994000 0.005851
1.995000 0.005857
1.996000 0.005869
1.997000 0.005887
1.998000 0.005908
1.999000 0.005931
2.000000 0.005957
2.001000 0.005986
2.002000 0.006016
2.003000 0.006049
2.004000 0.006084
2.005000 0.006121
2.006000 0.006161
2.007000 0.006201
2.008000 0.006240
2.009000 0.006275
2.010000 0.006306
2.011000 0.006331
2.012000 0.006348
2.013000 0.006355
2.014000 0.006352
2.015000 0.006350
2.016000 0.006352
2.017000 0.006354
2.018000 0.006355
2.019000 0.006354
2.020000 0.006351
2.021000 0.006355
2.022000 0.006361
2.023000 0.006368
2.024000 0.006376
2.025000 0.006384
2.026000 0.006392
2.027000 0.006400
2.028000 0.006406
2.029000 0.006413
2.030000 0.006419
2.031000 0.006426
2.032000 0.006434
2.033000 0.006445
2.034000 0.006458
2.035000 0.006474
2.036000 0.006496
2.037000 0.006523
2.038000 0.006555
2.039000 0.006592
2.040000 0.006632
2.041000 0.006676
2.042000 0.006723
2.043000 0.006771
2.044000 0.006821
2.045000 0.006872
2.046000 0.006927
2.047000 0.006985
2.048000 0.007045
2.049000 0.007108
2.050000 0.007176
2.051000 0.007252
2.052000 0.007331
2.053000 0.007411
2.054000 0.007488
2.055000 0.007557
2.056000 0.007616
2.057000 0.007660
2.058000 0.007688
2.059000 0.007695
2.060000 0.007685
2.061000 0.007697
2.062000 0.007731
2.063000 0.007790
2.064000 0.007872
2.065000 0.007973
2.066000 0.008089
2.067000 0.008212
2.068000 0.008333
2.069000 0.008444
2.070000 0.008540
2.071000 0.008622
2.072000 0.008691
2.073000 0.008750
2.074000 0.008802
2.075000 0.008849
2.076000 0.008893
2.077000 0.008935
2.078000 0.008976
2.079000 0.009017
2.080000 0.009055
2.081000 0.009089
2.082000 0.009117
2.083000 0.009136
2.084000 0.009145
2.085000 0.009142
2.086000 0.009149
2.087000 0.009166
2.088000 0.009194
2.089000 0.009231
2.090000 0.009277
2.091000 0.009330
2.092000 0.009386
2.093000 0.009444
2.094000 0.009504
2.095000 0.009564
2.096000 0.009627
2.097000 0.009692
2.098000 0.009759
2.099000 0.009827
2.100000 0.009896
2.101000 0.009966
2.102000 0.010036
2.103000 0.010106
2.104000 0.010176
2.105000 0.010247
2.106000 0.010318
2.107000 0.010390
2.108000 0.010463
2.109000 0.010537
2.110000 0.010612
2.111000 0.010690
2.112000 0.010770
2.113000 0.010853
2.114000 0.010941
2.115000 0.011033
2.116000 0.011132
2.117000 0.011240
2.118000 0.011356
2.119000 0.011482
2.120000 0.011614
2.121000 0.011752
2.122000 0.011893
2.123000 0.012033
2.124000 0.012168
2.125000 0.012293
2.126000 0.012406
2.127000 0.012506
2.128000 0.012596
2.129000 0.012682
2.130000 0.012768
2.131000 0.012861
2.132000 0.012960
2.133000 0.013070
2.134000 0.013196
2.135000 0.013342
2.136000 0.013513
2.137000 0.013707
2.138000 0.013920
2.139000 0.014141
2.140000 0.014363
2.141000 0.014573
2.142000 0.014761
2.143000 0.014910
2.144000 0.015005
2.145000 0.015037
2.146000 0.015071
2.147000 0.015175
2.148000 0.015346
2.149000 0.015570
2.150000 0.015834
2.151000 0.016118
2.152000 0.016401
2.153000 0.016659
2.154000 0.016871
2.155000 0.017026
2.156000 0.017120
2.157000 0.017159
2.158000 0.017163
2.159000 0.017169
2.160000 0.017172
2.161000 0.017208
2.162000 0.017295
2.163000 0.017436
2.164000 0.017621
2.165000 0.017834
2.166000 0.018053
2.167000 0.018258
2.168000 0.018430
2.169000 0.018562
2.170000 0.018655
2.171000 0.018712
2.172000 0.018738
2.173000 0.018746
2.174000 0.018755
2.175000 0.018787
2.176000 0.018861
2.177000 0.018984
2.178000 0.019149
2.179000 0.019336
2.180000 0.019517
2.181000 0.019667
2.182000 0.019770
2.183000 0.019823
2.184000 0.019828
2.185000 0.019864
2.186000 0.019937
2.187000 0.020041
2.188000 0.020172
2.189000 0.020321
2.190000 0.020479
2.191000 0.020629
2.192000 0.020752
2.193000 0.020824
2.194000 0.020828
2.195000 0.020884
2.196000 0.021000
2.197000 0.021151
2.198000 0.021305
2.199000 0.021438
2.200000 0.021535
2.201000 0.021591
2.202000 0.021609
2.203000 0.021618
2.204000 0.021645
2.205000 0.021674
2.206000 0.021696
2.207000 0.021703
2.208000 0.021699
2.209000 0.021713
2.210000 0.021734
2.211000 0.021752
2.212000 0.021760
2.213000 0.021756
2.214000 0.021740
2.215000 0.021733
2.216000 0.021737
2.217000 0.021754
2.218000 0.021784
2.219000 0.021821
2.220000 0.021862
2.221000 0.021902
2.222000 0.021943
2.223000 0.021985
2.224000 0.022030
2.225000 0.022072
2.226000 0.022103
2.227000 0.022118
2.228000 0.022114
2.229000 0.022096
2.230000 0.022078
2.231000 0.022061
2.232000 0.022052
2.233000 0.022046
2.234000 0.022031
2.235000 0.022029
2.236000 0.022074
2.237000 0.022182
2.238000 0.022358
2.239000 0.022595
2.240000 0.022864
2.241000 0.023134
2.242000 0.023378
2.243000 0.023581
2.244000 0.023741
2.245000 0.023869
2.246000 0.023977
2.247000 0.024079
2.248000 0.024177
2.249000 0.024268
2.250000 0.024340
2.251000 0.024381
2.252000 0.024384
2.253000 0.024406
2.254000 0.024465
2.255000 0.024553
2.256000 0.024661
2.257000 0.024784
2.258000 0.024915
2.259000 0.025042
2.260000 0.025150
2.261000 0.025231
2.262000 0.025284
2.263000 0.025316
2.264000 0.025334
2.265000 0.025338
2.266000 0.025317
2.267000 0.025340
2.268000 0.025423
2.269000 0.025573
2.270000 0.025779
2.271000 0.026020
2.272000 0.026242
2.273000 0.026416
2.274000 0.026530
2.275000 0.026581
2.276000 0.026573
2.277000 0.026516
2.278000 0.026493
2.279000 0.026513
2.280000 0.026569
2.281000 0.026650
2.282000 0.026747
2.283000 0.026852
2.284000 0.026954
2.285000 0.027045
2.286000 0.027123
2.287000 0.027197
2.288000 0.027280
2.289000 0.027388
2.290000 0.027532
2.291000 0.027710
2.292000 0.027902
2.293000 0.028084
2.294000 0.028239
2.295000 0.028357
2.296000 0.028438
2.297000 0.028491
2.298000 0.028518
2.299000 0.028515
2.300000 0.028539
2.301000 0.028596
2.302000 0.028674
2.303000 0.028749
2.304000 0.028803
2.305000 0.028831
2.306000 0.028835
2.307000 0.028854
2.308000 0.028894
2.309000 0.028952
2.310000 0.029023
2.311000 0.029098
2.312000 0.029163
2.313000 0.029203
2.314000 0.029199
2.315000 0.029230
2.316000 0.029325
2.317000 0.029478
2.318000 0.029672
2.319000 0.029881
2.320000 0.030078
2.321000 0.030238
2.322000 0.030341
2.323000 0.030381
2.324000 0.030383
2.325000 0.030435
2.326000 0.030517
2.327000 0.030615
2.328000 0.030719
2.329000 0.030823
2.330000 0.030910
2.331000 0.030954
2.332000 0.030942
2.333000 0.031021
2.334000 0.031193
2.335000 0.031431
2.336000 0.031687
2.337000 0.031926
2.338000 0.032124
2.339000 0.032267
2.340000 0.032352
2.341000 0.032378
2.342000 0.032399
2.343000 0.032474
2.344000 0.032587
2.345000 0.032731
2.346000 0.032900
2.347000 0.033086
2.348000 0.033281
2.349000 0.033478
2.350000 0.033671
2.351000 0.033853
2.352000 0.034020
2.353000 0.034166
2.354000 0.034290
2.355000 0.034393
2.356000 0.034481
2.357000 0.034564
2.358000 0.034658
2.359000 0.034772
2.360000 0.034893
2.361000 0.035017
2.362000 0.035134
2.363000 0.035234
2.364000 0.035306
2.365000 0.035342
2.366000 0.035333
2.367000 0.035277
2.368000 0.035278
2.369000 0.035347
2.370000 0.035494
2.371000 0.035721
2.372000 0.035995
2.373000 0.036275
2.374000 0.036544
2.375000 0.036781
2.376000 0.036967
2.377000 0.037086
2.378000 0.037134
2.379000 0.037111
2.380000 0.037027
2.381000 0.036970
2.382000 0.036973
2.383000 0.037023
2.384000 0.037097
2.385000 0.037173
2.386000 0.037236
2.387000 0.037283
2.388000 0.037319
2.389000 0.037354
2.390000 0.037393
2.391000 0.037441
2.392000 0.037486
2.393000 0.037527
2.394000 0.037562
2.395000 0.037599
2.396000 0.037646
2.397000 0.037710
2.398000 0.037793
2.399000 0.037894
2.400000 0.038006
2.401000 0.038119
2.402000 0.038222
2.403000 0.038303
2.404000 0.038352
2.405000 0.038362
2.406000 0.038331
2.407000 0.038312
2.408000 0.038308
2.409000 0.038304
2.410000 0.038292
2.411000 0.038276
2.412000 0.038264
2.413000 0.038267
2.414000 0.038291
2.415000 0.038328
2.416000 0.038377
2.417000 0.038445
2.418000 0.038535
2.419000 0.038643
2.420000 0.038755
2.421000 0.038850
2.422000 0.038916
2.423000 0.038946
2.424000 0.038935
2.425000 0.038955
2.426000 0.039012
2.427000 0.039102
2.428000 0.039221
2.429000 0.039360
2.430000 0.039508
2.431000 0.039654
2.432000 0.039783
2.433000 0.039882
2.434000 0.039940
2.435000 0.039956
2.436000 0.039937
2.437000 0.039896
2.438000 0.039855
2.439000 0.039813
2.440000 0.039781
2.441000 0.039761
2.442000 0.039755
2.443000 0.039762
2.444000 0.039784
2.445000 0.039822
2.446000 0.039875
2.447000 0.039943
2.448000 0.040024
2.449000 0.040108
2.450000 0.040187
2.451000 0.040247
2.452000 0.040284
2.453000 0.040295
2.454000 0.040285
2.455000 0.040265
2.456000 0.040247
2.457000 0.040245
2.458000 0.040273
2.459000 0.040342
2.460000 0.040453
2.461000 0.040569
2.462000 0.040679
2.463000 0.040766
2.464000 0.040801
2.465000 0.040756
2.466000 0.040636
2.467000 0.040602
2.468000 0.040647
2.469000 0.040742
2.470000 0.040853
2.471000 0.040952
2.472000 0.041020
2.473000 0.041052
2.474000 0.041047
2.475000 0.041007
2.476000 0.040975
2.477000 0.040980
2.478000 0.041018
2.479000 0.041078
2.480000 0.041147
2.481000 0.041208
2.482000 0.041244
2.483000 0.041248
2.484000 0.041254
2.485000 0.041300
2.486000 0.041353
2.487000 0.041402
2.488000 0.041438
2.489000 0.041459
2.490000 0.041462
2.491000 0.041445
2.492000 0.041407
2.493000 0.041348
2.494000 0.041298
2.495000 0.041261
2.496000 0.041235
2.497000 0.041219
2.498000 0.041214
2.499000 0.041219
2.500000 0.041235
2.501000 0.041262
2.502000 0.041302
2.503000 0.041354
2.504000 0.041418
2.505000 0.041495
2.506000 0.041582
2.507000 0.041673
2.508000 0.041754
2.509000 0.041806
2.510000 0.041814
2.511000 0.041771
2.512000 0.041700
2.513000 0.041659
2.514000 0.041632
2.515000 0.041607
2.516000 0.041577
2.517000 0.041537
2.518000 0.041479
2.519000 0.041400
2.520000 0.041296
2.521000 0.041165
2.522000 0.041009
2.523000 0.040877
2.524000 0.040772
2.525000 0.040689
2.526000 0.040615
2.527000 0.040538
2.528000 0.040450
2.529000 0.040371
2.530000 0.040310
2.531000 0.040254
2.532000 0.040194
2.533000 0.040120
2.534000 0.040026
2.535000 0.039903
2.536000 0.039745
2.537000 0.039550
2.538000 0.039343
2.539000 0.039146
2.540000 0.038965
2.541000 0.038808
2.542000 0.038685
2.543000 0.038608
2.544000 0.038589
2.545000 0.038637
2.546000 0.038686
2.547000 0.038668
2.548000 0.038587
2.549000 0.038455
2.550000 0.038283
2.551000 0.038092
2.552000 0.037905
2.553000 0.037746
2.554000 0.037637
2.555000 0.037592
2.556000 0.037614
2.557000 0.037690
2.558000 0.037795
2.559000 0.037872
2.560000 0.037915
2.561000 0.037876
2.562000 0.037834
2.563000 0.037785
2.564000 0.037723
2.565000 0.037647
2.566000 0.037559
2.567000 0.037467
2.568000 0.037382
2.569000 0.037309
2.570000 0.037257
2.571000 0.037232
2.572000 0.037236
2.573000 0.037259
2.574000 0.037280
2.575000 0.037275
2.576000 0.037220
2.577000 0.037104
2.578000 0.036939
2.579000 0.036768
2.580000 0.036618
2.581000 0.036511
2.582000 0.036458
2.583000 0.036459
2.584000 0.036507
2.585000 0.036521
2.586000 0.036491
2.587000 0.036426
2.588000 0.036330
2.589000 0.036212
2.590000 0.036085
2.591000 0.035964
2.592000 0.035868
2.593000 0.035819
2.594000 0.035834
2.595000 0.035792
2.596000 0.035685
2.597000 0.035539
2.598000 0.035387
2.599000 0.035256
2.600000 0.035163
2.601000 0.035113
2.602000 0.035103
2.603000 0.035099
2.604000 0.035080
2.605000 0.035058
2.606000 0.035047
2.607000 0.035054
2.608000 0.035076
2.609000 0.035084
2.610000 0.035086
2.611000 0.035090
2.612000 0.035105
2.613000 0.035130
2.614000 0.035164
2.615000 0.035190
2.616000 0.035203
2.617000 0.035203
2.618000 0.035187
2.619000 0.035161
2.620000 0.035128
2.621000 0.035093
2.622000 0.035055
2.623000 0.035015
2.624000 0.034972
2.625000 0.034931
2.626000 0.034900
2.627000 0.034886
2.628000 0.034890
2.629000 0.034907
2.630000 0.034924
2.631000 0.034938
2.632000 0.034942
2.633000 0.034940
2.634000 0.034947
2.635000 0.034938
2.636000 0.034883
2.637000 0.034765
2.638000 0.034578
2.639000 0.034331
2.640000 0.034051
2.641000 0.033769
2.642000 0.033513
2.643000 0.033296
2.644000 0.033123
2.645000 0.032985
2.646000 0.032868
2.647000 0.032762
2.648000 0.032665
2.649000 0.032580
2.650000 0.032517
2.651000 0.032488
2.652000 0.032500
2.653000 0.032495
2.654000 0.032453
2.655000 0.032384
2.656000 0.032293
2.657000 0.032188
2.658000 0.032075
2.659000 0.031965
2.660000 0.031871
2.661000 0.031803
2.662000 0.031761
2.663000 0.031737
2.664000 0.031724
2.665000 0.031721
2.666000 0.031739
2.667000 0.031712
2.668000 0.031624
2.669000 0.031472
2.670000 0.031270
2.671000 0.031045
2.672000 0.030826
2.673000 0.030638
2.674000 0.030494
2.675000 0.030398
2.676000 0.030350
2.677000 0.030349
2.678000 0.030316
2.679000 0.030244
2.680000 0.030145
2.681000 0.030030
2.682000 0.029907
2.683000 0.029783
2.684000 0.029666
2.685000 0.029565
2.686000 0.029480
2.687000 0.029403
2.688000 0.029321
2.689000 0.029218
2.690000 0.029081
2.691000 0.028914
2.692000 0.028735
2.693000 0.028567
2.694000 0.028428
2.695000 0.028326
2.696000 0.028258
2.697000 0.028218
2.698000 0.028204
2.699000 0.028222
2.700000 0.028211
2.701000 0.028168
2.702000 0.028104
2.703000 0.028044
2.704000 0.028004
2.705000 0.027993
2.706000 0.028006
2.707000 0.028002
2.708000 0.027975
2.709000 0.027928
2.710000 0.027865
2.711000 0.027797
2.712000 0.027734
2.713000 0.027695
2.714000 0.027699
2.715000 0.027666
2.716000 0.027567
2.717000 0.027409
2.718000 0.027208
2.719000 0.026990
2.720000 0.026785
2.721000 0.026622
2.722000 0.026520
2.723000 0.026487
2.724000 0.026497
2.725000 0.026462
2.726000 0.026399
2.727000 0.026318
2.728000 0.026225
2.729000 0.026128
2.730000 0.026045
2.731000 0.026002
2.732000 0.026018
2.733000 0.025949
2.734000 0.025797
2.735000 0.025584
2.736000 0.025345
2.737000 0.025116
2.738000 0.024922
2.739000 0.024779
2.740000 0.024695
2.741000 0.024675
2.742000 0.024669
2.743000 0.024602
2.744000 0.024483
2.745000 0.024319
2.746000 0.024118
2.747000 0.023890
2.748000 0.023646
2.749000 0.023395
2.750000 0.023148
2.751000 0.022913
2.752000 0.022700
2.753000 0.022516
2.754000 0.022364
2.755000 0.022245
2.756000 0.022153
2.757000 0.022076
2.758000 0.021999
2.759000 0.021909
2.760000 0.021800
2.761000 0.021679
2.762000 0.021555
2.763000 0.021441
2.764000 0.021345
2.765000 0.021276
2.766000 0.021245
2.767000 0.021254
2.768000 0.021205
2.769000 0.021093
2.770000 0.020919
2.771000 0.020686
2.772000 0.020405
2.773000 0.020092
2.774000 0.019767
2.775000 0.019455
2.776000 0.019184
2.777000 0.018971
2.778000 0.018826
2.779000 0.018750
2.780000 0.018740
2.781000 0.018712
2.782000 0.018637
2.783000 0.018531
2.784000 0.018415
2.785000 0.018311
2.786000 0.018229
2.787000 0.018173
2.788000 0.018134
2.789000 0.018103
2.790000 0.018074
2.791000 0.018042
2.792000 0.018010
2.793000 0.017981
2.794000 0.017956
2.795000 0.017926
2.796000 0.017882
2.797000 0.017816
2.798000 0.017726
2.799000 0.017613
2.800000 0.017486
2.801000 0.017355
2.802000 0.017232
2.803000 0.017129
2.804000 0.017056
2.805000 0.017021
2.806000 0.017026
2.807000 0.017022
2.808000 0.017003
2.809000 0.016987
2.810000 0.016982
2.811000 0.016987
2.812000 0.016996
2.813000 0.016996
2.814000 0.016982
2.815000 0.016951
2.816000 0.016902
2.817000 0.016833
2.818000 0.016743
2.819000 0.016639
2.820000 0.016535
2.821000 0.016444
2.822000 0.016379
2.823000 0.016349
2.824000 0.016358
2.825000 0.016335
2.826000 0.016273
2.827000 0.016175
2.828000 0.016044
2.829000 0.015887
2.830000 0.015719
2.831000 0.015553
2.832000 0.015401
2.833000 0.015278
2.834000 0.015194
2.835000 0.015149
2.836000 0.015136
2.837000 0.015142
2.838000 0.015146
2.839000 0.015151
2.840000 0.015144
2.841000 0.015123
2.842000 0.015087
2.843000 0.015035
2.844000 0.014965
2.845000 0.014877
2.846000 0.014771
2.847000 0.014650
2.848000 0.014514
2.849000 0.014372
2.850000 0.014232
2.851000 0.014105
2.852000 0.013999
2.853000 0.013918
2.854000 0.013861
2.855000 0.013821
2.856000 0.013790
2.857000 0.013755
2.858000 0.013707
2.859000 0.013636
2.860000 0.013539
2.861000 0.013414
2.862000 0.013269
2.863000 0.013120
2.864000 0.012994
2.865000 0.012927
2.866000 0.012917
2.867000 0.012813
2.868000 0.012635
2.869000 0.012418
2.870000 0.012203
2.871000 0.012019
2.872000 0.011879
2.873000 0.011787
2.874000 0.011739
2.875000 0.011733
2.876000 0.011725
2.877000 0.011683
2.878000 0.011612
2.879000 0.011523
2.880000 0.011431
2.881000 0.011354
2.882000 0.011310
2.883000 0.011307
2.884000 0.011315
2.885000 0.011292
2.886000 0.011250
2.887000 0.011203
2.888000 0.011157
2.889000 0.011116
2.890000 0.011085
2.891000 0.011068
2.892000 0.011066
2.893000 0.011081
2.894000 0.011085
2.895000 0.011076
2.896000 0.011057
2.897000 0.011031
2.898000 0.010999
2.899000 0.010960
2.900000 0.010914
2.901000 0.010857
2.902000 0.010789
2.903000 0.010708
2.904000 0.010613
2.905000 0.010503
2.906000 0.010380
2.907000 0.010252
2.908000 0.010130
2.909000 0.010034
2.910000 0.009978
2.911000 0.009969
2.912000 0.009982
2.913000 0.009960
2.914000 0.009917
2.915000 0.009865
2.916000 0.009809
2.917000 0.009753
2.918000 0.009703
2.919000 0.009665
2.920000 0.009642
2.921000 0.009639
2.922000 0.009658
2.923000 0.009653
2.924000 0.009626
2.925000 0.009591
2.926000 0.009563
2.927000 0.009557
2.928000 0.009581
2.929000 0.009611
2.930000 0.009631
2.931000 0.009646
2.932000 0.009661
2.933000 0.009675
2.934000 0.009689
2.935000 0.009701
2.936000 0.009714
2.937000 0.009730
2.938000 0.009730
2.939000 0.009704
2.940000 0.009660
2.941000 0.009607
2.942000 0.009548
2.943000 0.009484
2.944000 0.009414
2.945000 0.009337
2.946000 0.009253
2.947000 0.009177
2.948000 0.009111
2.949000 0.009054
2.950000 0.009004
2.951000 0.008957
2.952000 0.008911
2.953000 0.008862
2.954000 0.008811
2.955000 0.008755
2.956000 0.008698
2.957000 0.008641
2.958000 0.008592
2.959000 0.008563
2.960000 0.008565
2.961000 0.008608
2.962000 0.008593
2.963000 0.008526
2.964000 0.008420
2.965000 0.008295
2.966000 0.008171
2.967000 0.008061
2.968000 0.007973
2.969000 0.007910
2.970000 0.007868
2.971000 0.007835
2.972000 0.007807
2.973000 0.007781
2.974000 0.007760
2.975000 0.007746
2.976000 0.007745
2.977000 0.007760
2.978000 0.007787
2.979000 0.007802
2.980000 0.007806
2.981000 0.007799
2.982000 0.007783
2.983000 0.007761
2.984000 0.007735
2.985000 0.007707
2.986000 0.007679
2.987000 0.007655
2.988000 0.007632
2.989000 0.007609
2.990000 0.007583
2.991000 0.007555
2.992000 0.007527
2.993000 0.007501
2.994000 0.007478
2.995000 0.007457
2.996000 0.007444
2.997000 0.007437
2.998000 0.007434
2.999000 0.007433
3.000000 0.007434
3.001000 0.007435
3.002000 0.007436
3.003000 0.007434
3.004000 0.007431
3.005000 0.007424
3.006000 0.007414
3.007000 0.007402
3.008000 0.007388
3.009000 0.007374
3.010000 0.007361
3.011000 0.007350
3.012000 0.007341
3.013000 0.007335
3.014000 0.007330
3.015000 0.007325
3.016000 0.007317
3.017000 0.007304
3.018000 0.007284
3.019000 0.007259
3.020000 0.007233
3.021000 0.007211
3.022000 0.007190
3.023000 0.007167
3.024000 0.007144
3.025000 0.007123
3.026000 0.007105
3.027000 0.007090
3.028000 0.007075
3.029000 0.007060
3.030000 0.007043
3.031000 0.007032
3.032000 0.007033
3.033000 0.007046
3.034000 0.007067
3.035000 0.007094
3.036000 0.007122
3.037000 0.007147
3.038000 0.007164
3.039000 0.007171
3.040000 0.007169
3.041000 0.007160
3.042000 0.007150
3.043000 0.007147
3.044000 0.007156
3.045000 0.007179
3.046000 0.007216
3.047000 0.007261
3.048000 0.007310
3.049000 0.007357
3.050000 0.007397
3.051000 0.007430
3.052000 0.007455
3.053000 0.007473
3.054000 0.007484
3.055000 0.007489
3.056000 0.007488
3.057000 0.007482
3.058000 0.007472
3.059000 0.007456
3.060000 0.007438
3.061000 0.007422
3.062000 0.007407
3.063000 0.007394
3.064000 0.007383
3.065000 0.007374
3.066000 0.007367
3.067000 0.007363
3.068000 0.007360
3.069000 0.007359
3.070000 0.007359
3.071000 0.007358
3.072000 0.007357
3.073000 0.007355
3.074000 0.007355
3.075000 0.007359
3.076000 0.007367
3.077000 0.007379
3.078000 0.007395
3.079000 0.007414
3.080000 0.007432
3.081000 0.007447
3.082000 0.007461
3.083000 0.007474
3.084000 0.007487
3.085000 0.007502
3.086000 0.007518
3.087000 0.007536
3.088000 0.007554
3.089000 0.007573
3.090000 0.007593
3.091000 0.007615
3.092000 0.007640
3.093000 0.007668
3.094000 0.007701
3.095000 0.007740
3.096000 0.007785
3.097000 0.007836
3.098000 0.007893
3.099000 0.007955
3.100000 0.008023
3.101000 0.008098
3.102000 0.008177
3.103000 0.008258
3.104000 0.008337
3.105000 0.008411
3.106000 0.008477
3.107000 0.008534
3.108000 0.008579
3.109000 0.008606
3.110000 0.008614
3.111000 0.008605
3.112000 0.008620
3.113000 0.008658
3.114000 0.008713
3.115000 0.008780
3.116000 0.008852
3.117000 0.008922
3.118000 0.008989
3.119000 0.009050
3.120000 0.009105
3.121000 0.009153
3.122000 0.009193
3.123000 0.009223
3.124000 0.009238
3.125000 0.009235
3.126000 0.009216
3.127000 0.009213
3.128000 0.009228
3.129000 0.009260
3.130000 0.009310
3.131000 0.009376
3.132000 0.009459
3.133000 0.009556
3.134000 0.009664
3.135000 0.009779
3.136000 0.009894
3.137000 0.010005
3.138000 0.010108
3.139000 0.010200
3.140000 0.010279
3.141000 0.010344
3.142000 0.010395
3.143000 0.010430
3.144000 0.010448
3.145000 0.010446
3.146000 0.010425
3.147000 0.010419
3.148000 0.010429
3.149000 0.010458
3.150000 0.010514
3.151000 0.010602
3.152000 0.010726
3.153000 0.010884
3.154000 0.011069
3.155000 0.011269
3.156000 0.011471
3.157000 0.011664
3.158000 0.011846
3.159000 0.012013
3.160000 0.012164
3.161000 0.012294
3.162000 0.012396
3.163000 0.012462
3.164000 0.012489
3.165000 0.012473
3.166000 0.012499
3.167000 0.012571
3.168000 0.012687
3.169000 0.012848
3.170000 0.013053
3.171000 0.013297
3.172000 0.013573
3.173000 0.013876
3.174000 0.014203
3.175000 0.014549
3.176000 0.014908
3.177000 0.015276
3.178000 0.015642
3.179000 0.015992
3.180000 0.016306
3.181000 0.016552
3.182000 0.016702
3.183000 0.016736
3.184000 0.016786
3.185000 0.016921
3.186000 0.017106
3.187000 0.017298
3.188000 0.017464
3.189000 0.017584
3.190000 0.017652
3.191000 0.017674
3.192000 0.017659
3.193000 0.017655
3.194000 0.017639
3.195000 0.017663
3.196000 0.017761
3.197000 0.017941
3.198000 0.018188
3.199000 0.018467
3.200000 0.018734
3.201000 0.018945
3.202000 0.019074
3.203000 0.019122
3.204000 0.019109
3.205000 0.019139
3.206000 0.019191
3.207000 0.019250
3.208000 0.019309
3.209000 0.019364
3.210000 0.019417
3.211000 0.019468
3.212000 0.019513
3.213000 0.019539
3.214000 0.019528
3.215000 0.019587
3.216000 0.019727
3.217000 0.019942
3.218000 0.020211
3.219000 0.020499
3.220000 0.020770
3.221000 0.020998
3.222000 0.021170
3.223000 0.021286
3.224000 0.021351
3.225000 0.021385
3.226000 0.021408
3.227000 0.021442
3.228000 0.021499
3.229000 0.021579
3.230000 0.021666
3.231000 0.021736
3.232000 0.021770
3.233000 0.021787
3.234000 0.021866
3.235000 0.022008
3.236000 0.022211
3.237000 0.022464
3.238000 0.022750
3.239000 0.023056
3.240000 0.023372
3.241000 0.023698
3.242000 0.024042
3.243000 0.024410
3.244000 0.024800
3.245000 0.025184
3.246000 0.025516
3.247000 0.025739
3.248000 0.025811
3.249000 0.025900
3.250000 0.026157
3.251000 0.026552
3.252000 0.027035
3.253000 0.027558
3.254000 0.028080
3.255000 0.028570
3.256000 0.029005
3.257000 0.029372
3.258000 0.029669
3.259000 0.029904
3.260000 0.030088
3.261000 0.030235
3.262000 0.030357
3.263000 0.030457
3.264000 0.030535
3.265000 0.030588
3.266000 0.030616
3.267000 0.030620
3.268000 0.030630
3.269000 0.030653
3.270000 0.030682
3.271000 0.030716
3.272000 0.030756
3.273000 0.030809
3.274000 0.030885
3.275000 0.030997
3.276000 0.031157
3.277000 0.031370
3.278000 0.031629
3.279000 0.031918
3.280000 0.032215
3.281000 0.032495
3.282000 0.032733
3.283000 0.032912
3.284000 0.033029
3.285000 0.033094
3.286000 0.033130
3.287000 0.033160
3.288000 0.033209
3.289000 0.033293
3.290000 0.033416
3.291000 0.033569
3.292000 0.033738
3.293000 0.033911
3.294000 0.034077
3.295000 0.034223
3.296000 0.034326
3.297000 0.034349
3.298000 0.034385
3.299000 0.034579
3.300000 0.034940
3.301000 0.035441
3.302000 0.036027
3.303000 0.036632
3.304000 0.037195
3.305000 0.037676
3.306000 0.038062
3.307000 0.038358
3.308000 0.038574
3.309000 0.038719
3.310000 0.038802
3.311000 0.038824
3.312000 0.038815
3.313000 0.038872
3.314000 0.038989
3.315000 0.039158
3.316000 0.039360
3.317000 0.039572
3.318000 0.039767
3.319000 0.039922
3.320000 0.040026
3.321000 0.040085
3.322000 0.040116
3.323000 0.040138
3.324000 0.040165
3.325000 0.040207
3.326000 0.040265
3.327000 0.040340
3.328000 0.040427
3.329000 0.040519
3.330000 0.040604
3.331000 0.040666
3.332000 0.040691
3.333000 0.040671
3.334000 0.040642
3.335000 0.040670
3.336000 0.040743
3.337000 0.040846
3.338000 0.040961
3.339000 0.041070
3.340000 0.041153
3.341000 0.041198
3.342000 0.041206
3.343000 0.041211
3.344000 0.041246
3.345000 0.041313
3.346000 0.041408
3.347000 0.041515
3.348000 0.041630
3.349000 0.041745
3.350000 0.041857
3.351000 0.041964
3.352000 0.042068
3.353000 0.042171
3.354000 0.042276
3.355000 0.042381
3.356000 0.042481
3.357000 0.042563
3.358000 0.042615
3.359000 0.042631
3.360000 0.042604
3.361000 0.042585
3.362000 0.042611
3.363000 0.042664
3.364000 0.042730
3.365000 0.042796
3.366000 0.042851
3.367000 0.042882
3.368000 0.042882
3.369000 0.042915
3.370000 0.042977
3.371000 0.043055
3.372000 0.043123
3.373000 0.043161
3.374000 0.043160
3.375000 0.043170
3.376000 0.043206
3.377000 0.043265
3.378000 0.043342
3.379000 0.043430
3.380000 0.043517
3.381000 0.043588
3.382000 0.043633
3.383000 0.043653
3.384000 0.043657
3.385000 0.043655
3.386000 0.043662
3.387000 0.043687
3.388000 0.043738
3.389000 0.043815
3.390000 0.043911
3.391000 0.044013
3.392000 0.044103
3.393000 0.044167
3.394000 0.044197
3.395000 0.044203
3.396000 0.044240
3.397000 0.044306
3.398000 0.044397
3.399000 0.044512
3.400000 0.044649
3.401000 0.044799
3.402000 0.044949
3.403000 0.045083
3.404000 0.045190
3.405000 0.045264
3.406000 0.045304
3.407000 0.045311
3.408000 0.045309
3.409000 0.045325
3.410000 0.045348
3.411000 0.045365
3.412000 0.045361
3.413000 0.045340
3.414000 0.045356
3.415000 0.045414
3.416000 0.045518
3.417000 0.045670
3.418000 0.045873
3.419000 0.046122
3.420000 0.046408
3.421000 0.046708
3.422000 0.047011
3.423000 0.047300
3.424000 0.047558
3.425000 0.047764
3.426000 0.047912
3.427000 0.047997
3.428000 0.048022
3.429000 0.048047
3.430000 0.048147
3.431000 0.048318
3.432000 0.048555
3.433000 0.048844
3.434000 0.049160
3.435000 0.049470
3.436000 0.049742
3.437000 0.049959
3.438000 0.050116
3.439000 0.050215
3.440000 0.050259
3.441000 0.050253
3.442000 0.050304
3.443000 0.050399
3.444000 0.050532
3.445000 0.050695
3.446000 0.050881
3.447000 0.051068
3.448000 0.051225
3.449000 0.051325
3.450000 0.051356
3.451000 0.051327
3.452000 0.051296
3.453000 0.051290
3.454000 0.051292
3.455000 0.051296
3.456000 0.051311
3.457000 0.051346
3.458000 0.051415
3.459000 0.051525
3.460000 0.051676
3.461000 0.051856
3.462000 0.052054
3.463000 0.052256
3.464000 0.052443
3.465000 0.052600
3.466000 0.052717
3.467000 0.052793
3.468000 0.052827
3.469000 0.052824
3.470000 0.052829
3.471000 0.052860
3.472000 0.052911
3.473000 0.052971
3.474000 0.053030
3.475000 0.053086
3.476000 0.053142
3.477000 0.053204
3.478000 0.053274
3.479000 0.053346
3.480000 0.053407
3.481000 0.053446
3.482000 0.053461
3.483000 0.053461
3.484000 0.053461
3.485000 0.053474
3.486000 0.053506
3.487000 0.053559
3.488000 0.053634
3.489000 0.053726
3.490000 0.053833
3.491000 0.053951
3.492000 0.054076
3.493000 0.054201
3.494000 0.054321
3.495000 0.054430
3.496000 0.054520
3.497000 0.054588
3.498000 0.054635
3.499000 0.054668
3.500000 0.054694
3.501000 0.054718
3.502000 0.054737
3.503000 0.054742
3.504000 0.054721
3.505000 0.054665
3.506000 0.054592
3.507000 0.054573
3.508000 0.054595
3.509000 0.054643
3.510000 0.054700
3.511000 0.054749
3.512000 0.054742
3.513000 0.054708
3.514000 0.054691
3.515000 0.054697
3.516000 0.054727
3.517000 0.054788
3.518000 0.054881
3.519000 0.055006
3.520000 0.055164
3.521000 0.055355
3.522000 0.055578
3.523000 0.055831
3.524000 0.056101
3.525000 0.056362
3.526000 0.056576
3.527000 0.056676
3.528000 0.056647
3.529000 0.056730
3.530000 0.056904
3.531000 0.057133
3.532000 0.057378
3.533000 0.057613
3.534000 0.057817
3.535000 0.057984
3.536000 0.058114
3.537000 0.058209
3.538000 0.058268
3.539000 0.058291
3.540000 0.058283
3.541000 0.058247
3.542000 0.058192
3.543000 0.058152
3.544000 0.058144
3.545000 0.058164
3.546000 0.058208
3.547000 0.058244
3.548000 0.058275
3.549000 0.058301
3.550000 0.058317
3.551000 0.058317
3.552000 0.058296
3.553000 0.058253
3.554000 0.058197
3.555000 0.058139
3.556000 0.058090
3.557000 0.058053
3.558000 0.058017
3.559000 0.057964
3.560000 0.057875
3.561000 0.057746
3.562000 0.057662
3.563000 0.057665
3.564000 0.057748
3.565000 0.057898
3.566000 0.058019
3.567000 0.058095
3.568000 0.058118
3.569000 0.058075
3.570000 0.057960
3.571000 0.057770
3.572000 0.057509
3.573000 0.057216
3.574000 0.056938
3.575000 0.056677
3.576000 0.056434
3.577000 0.056212
3.578000 0.056014
3.579000 0.055849
3.580000 0.055734
3.581000 0.055691
3.582000 0.055738
3.583000 0.055872
3.584000 0.055945
3.585000 0.055872
3.586000 0.055682
3.587000 0.055545
3.588000 0.055512
3.589000 0.055588
3.590000 0.055756
3.591000 0.055985
3.592000 0.056233
3.593000 0.056431
3.594000 0.056590
3.595000 0.056661
3.596000 0.056616
3.597000 0.056459
3.598000 0.056215
3.599000 0.055926
3.600000 0.055645
3.601000 0.055422
3.602000 0.055280
3.603000 0.055219
3.604000 0.055217
3.605000 0.055179
3.606000 0.055125
3.607000 0.055071
3.608000 0.055019
3.609000 0.054966
3.610000 0.054906
3.611000 0.054835
3.612000 0.054785
3.613000 0.054765
3.614000 0.054789
3.615000 0.054743
3.616000 0.054612
3.617000 0.054397
3.618000 0.054122
3.619000 0.053828
3.620000 0.053549
3.621000 0.053318
3.622000 0.053148
3.623000 0.053040
3.624000 0.052984
3.625000 0.052962
3.626000 0.052946
3.627000 0.052906
3.628000 0.052857
3.629000 0.052813
3.630000 0.052785
3.631000 0.052785
3.632000 0.052824
3.633000 0.052874
3.634000 0.052852
3.635000 0.052754
3.636000 0.052585
3.637000 0.052359
3.638000 0.052092
3.639000 0.051800
3.640000 0.051493
3.641000 0.051172
3.642000 0.050834
3.643000 0.050472
3.644000 0.050090
3.645000 0.049713
3.646000 0.049389
3.647000 0.049170
3.648000 0.049102
3.649000 0.049016
3.650000 0.048764
3.651000 0.048379
3.652000 0.047908
3.653000 0.047399
3.654000 0.046891
3.655000 0.046414
3.656000 0.045989
3.657000 0.045630
3.658000 0.045336
3.659000 0.045103
3.660000 0.044917
3.661000 0.044766
3.662000 0.044642
3.663000 0.044540
3.664000 0.044465
3.665000 0.044418
3.666000 0.044400
3.667000 0.044406
3.668000 0.044405
3.669000 0.044388
3.670000 0.044360
3.671000 0.044322
3.672000 0.044282
3.673000 0.044233
3.674000 0.044160
3.675000 0.044049
3.676000 0.043885
3.677000 0.043664
3.678000 0.043393
3.679000 0.043087
3.680000 0.042774
3.681000 0.042478
3.682000 0.042223
3.683000 0.042024
3.684000 0.041886
3.685000 0.041797
3.686000 0.041742
3.687000 0.041696
3.688000 0.041636
3.689000 0.041544
3.690000 0.041416
3.691000 0.041259
3.692000 0.041088
3.693000 0.040913
3.694000 0.040744
3.695000 0.040593
3.696000 0.040482
3.697000 0.040447
3.698000 0.040395
3.699000 0.040182
3.700000 0.039799
3.701000 0.039273
3.702000 0.038657
3.703000 0.038014
3.704000 0.037416
3.705000 0.036912
3.706000 0.036513
3.707000 0.036210
3.708000 0.035990
3.709000 0.035840
3.710000 0.035753
3.711000 0.035725
3.712000 0.035727
3.713000 0.035665
3.714000 0.035541
3.715000 0.035368
3.716000 0.035163
3.717000 0.034949
3.718000 0.034753
3.719000 0.034595
3.720000 0.034487
3.721000 0.034422
3.722000 0.034384
3.723000 0.034356
3.724000 0.034324
3.725000 0.034277
3.726000 0.034212
3.727000 0.034125
3.728000 0.034018
3.729000 0.033898
3.730000 0.033778
3.731000 0.033677
3.732000 0.033609
3.733000 0.033587
3.734000 0.033576
3.735000 0.033513
3.736000 0.033411
3.737000 0.033287
3.738000 0.033162
3.739000 0.033053
3.740000 0.032973
3.741000 0.032929
3.742000 0.032920
3.743000 0.032911
3.744000 0.032872
3.745000 0.032804
3.746000 0.032712
3.747000 0.032597
3.748000 0.032463
3.749000 0.032316
3.750000 0.032164
3.751000 0.032011
3.752000 0.031858
3.753000 0.031704
3.754000 0.031547
3.755000 0.031387
3.756000 0.031229
3.757000 0.031088
3.758000 0.030977
3.759000 0.030908
3.760000 0.030887
3.761000 0.030866
3.762000 0.030806
3.763000 0.030726
3.764000 0.030639
3.765000 0.030558
3.766000 0.030495
3.767000 0.030461
3.768000 0.030463
3.769000 0.030438
3.770000 0.030384
3.771000 0.030319
3.772000 0.030266
3.773000 0.030242
3.774000 0.030254
3.775000 0.030247
3.776000 0.030206
3.777000 0.030133
3.778000 0.030034
3.779000 0.029919
3.780000 0.029803
3.781000 0.029705
3.782000 0.029637
3.783000 0.029599
3.784000 0.029584
3.785000 0.029579
3.786000 0.029569
3.787000 0.029542
3.788000 0.029490
3.789000 0.029414
3.790000 0.029318
3.791000 0.029217
3.792000 0.029128
3.793000 0.029066
3.794000 0.029041
3.795000 0.029043
3.796000 0.029011
3.797000 0.028950
3.798000 0.028863
3.799000 0.028752
3.800000 0.028619
3.801000 0.028470
3.802000 0.028322
3.803000 0.028192
3.804000 0.028089
3.805000 0.028018
3.806000 0.027978
3.807000 0.027968
3.808000 0.027962
3.809000 0.027934
3.810000 0.027894
3.811000 0.027857
3.812000 0.027837
3.813000 0.027831
3.814000 0.027787
3.815000 0.027700
3.816000 0.027570
3.817000 0.027398
3.818000 0.027184
3.819000 0.026933
3.820000 0.026653
3.821000 0.026356
3.822000 0.026058
3.823000 0.025776
3.824000 0.025528
3.825000 0.025329
3.826000 0.025188
3.827000 0.025105
3.828000 0.025082
3.829000 0.025058
3.830000 0.024963
3.831000 0.024789
3.832000 0.024538
3.833000 0.024225
3.834000 0.023877
3.835000 0.023530
3.836000 0.023219
3.837000 0.022966
3.838000 0.022780
3.839000 0.022662
3.840000 0.022606
3.841000 0.022605
3.842000 0.022549
3.843000 0.022442
3.844000 0.022285
3.845000 0.022082
3.846000 0.021844
3.847000 0.021594
3.848000 0.021371
3.849000 0.021205
3.850000 0.021113
3.851000 0.021087
3.852000 0.021072
3.853000 0.021040
3.854000 0.021010
3.855000 0.020985
3.856000 0.020958
3.857000 0.020914
3.858000 0.020842
3.859000 0.020733
3.860000 0.020583
3.861000 0.020399
3.862000 0.020195
3.863000 0.019986
3.864000 0.019790
3.865000 0.019625
3.866000 0.019498
3.867000 0.019412
3.868000 0.019366
3.869000 0.019358
3.870000 0.019341
3.871000 0.019296
3.872000 0.019233
3.873000 0.019161
3.874000 0.019088
3.875000 0.019018
3.876000 0.018947
3.877000 0.018867
3.878000 0.018777
3.879000 0.018686
3.880000 0.018605
3.881000 0.018546
3.882000 0.018510
3.883000 0.018490
3.884000 0.018468
3.885000 0.018434
3.886000 0.018377
3.887000 0.018298
3.888000 0.018196
3.889000 0.018076
3.890000 0.017941
3.891000 0.017793
3.892000 0.017638
3.893000 0.017481
3.894000 0.017325
3.895000 0.017176
3.896000 0.017037
3.897000 0.016911
3.898000 0.016792
3.899000 0.016680
3.900000 0.016571
3.901000 0.016463
3.902000 0.016358
3.903000 0.016266
3.904000 0.016198
3.905000 0.016167
3.906000 0.016158
3.907000 0.016107
3.908000 0.016031
3.909000 0.015952
3.910000 0.015888
3.911000 0.015851
3.912000 0.015848
3.913000 0.015851
3.914000 0.015818
3.915000 0.015752
3.916000 0.015657
3.917000 0.015532
3.918000 0.015378
3.919000 0.015195
3.920000 0.014984
3.921000 0.014743
3.922000 0.014476
3.923000 0.014188
3.924000 0.013894
3.925000 0.013625
3.926000 0.013417
3.927000 0.013305
3.928000 0.013304
3.929000 0.013173
3.930000 0.012932
3.931000 0.012619
3.932000 0.012271
3.933000 0.011920
3.934000 0.011587
3.935000 0.011284
3.936000 0.011018
3.937000 0.010795
3.938000 0.010618
3.939000 0.010492
3.940000 0.010415
3.941000 0.010382
3.942000 0.010386
3.943000 0.010391
3.944000 0.010379
3.945000 0.010354
3.946000 0.010318
3.947000 0.010270
3.948000 0.010209
3.949000 0.010131
3.950000 0.010037
3.951000 0.009926
3.952000 0.009800
3.953000 0.009660
3.954000 0.009508
3.955000 0.009346
3.956000 0.009178
3.957000 0.009011
3.958000 0.008860
3.959000 0.008746
3.960000 0.008694
3.961000 0.008716
3.962000 0.008733
3.963000 0.008713
3.964000 0.008665
3.965000 0.008602
3.966000 0.008530
3.967000 0.008457
3.968000 0.008389
3.969000 0.008336
3.970000 0.008309
3.971000 0.008313
3.972000 0.008352
3.973000 0.008392
3.974000 0.008390
3.975000 0.008349
3.976000 0.008271
3.977000 0.008161
3.978000 0.008024
3.979000 0.007866
3.980000 0.007691
3.981000 0.007505
3.982000 0.007324
3.983000 0.007165
3.984000 0.007048
3.985000 0.006985
3.986000 0.006985
3.987000 0.006918
3.988000 0.006777
3.989000 0.006577
3.990000 0.006341
3.991000 0.006093
3.992000 0.005865
3.993000 0.005680
3.994000 0.005547
3.995000 0.005466
3.996000 0.005427
3.997000 0.005418
3.998000 0.005427
3.999000 0.005443
4.000000 0.005455
4.001000 0.005457
4.002000 0.005459
4.003000 0.005471
4.004000 0.005491
4.005000 0.005517
4.006000 0.005549
4.007000 0.005593
4.008000 0.005656
4.009000 0.005748
4.010000 0.005872
4.011000 0.006026
4.012000 0.006175
4.013000 0.006315
4.014000 0.006445
4.015000 0.006566
4.016000 0.006678
4.017000 0.006780
4.018000 0.006870
4.019000 0.006942
4.020000 0.007000
4.021000 0.007038
4.022000 0.007058
4.023000 0.007059
4.024000 0.007046
4.025000 0.007021
4.026000 0.007009
4.027000 0.007017
4.028000 0.007019
4.029000 0.007003
4.030000 0.006972
4.031000 0.006934
4.032000 0.006899
4.033000 0.006874
4.034000 0.006864
4.035000 0.006868
4.036000 0.006882
4.037000 0.006905
4.038000 0.006930
4.039000 0.006956
4.040000 0.006978
4.041000 0.006995
4.042000 0.007003
4.043000 0.007002
4.044000 0.006992
4.045000 0.006987
4.046000 0.006994
4.047000 0.007011
4.048000 0.007038
4.049000 0.007069
4.050000 0.007097
4.051000 0.007117
4.052000 0.007125
4.053000 0.007122
4.054000 0.007110
4.055000 0.007091
4.056000 0.007067
4.057000 0.007047
4.058000 0.007034
4.059000 0.007028
4.060000 0.007028
4.061000 0.007034
4.062000 0.007045
4.063000 0.007058
4.064000 0.007072
4.065000 0.007087
4.066000 0.007103
4.067000 0.007120
4.068000 0.007139
4.069000 0.007162
4.070000 0.007191
4.071000 0.007226
4.072000 0.007258
4.073000 0.007287
4.074000 0.007316
4.075000 0.007348
4.076000 0.007386
4.077000 0.007428
4.078000 0.007473
4.079000 0.007523
4.080000 0.007573
4.081000 0.007623
4.082000 0.007675
4.083000 0.007730
4.084000 0.007786
4.085000 0.007843
4.086000 0.007895
4.087000 0.007940
4.088000 0.007975
4.089000 0.007999
4.090000 0.008013
4.091000 0.008018
4.092000 0.008012
4.093000 0.007996
4.094000 0.007990
4.095000 0.007990
4.096000 0.007994
4.097000 0.008001
4.098000 0.008013
4.099000 0.008032
4.100000 0.008059
4.101000 0.008095
4.102000 0.008139
4.103000 0.008191
4.104000 0.008234
4.105000 0.008258
4.106000 0.008267
4.107000 0.008264
4.108000 0.008254
4.109000 0.008239
4.110000 0.008223
4.111000 0.008203
4.112000 0.008191
4.113000 0.008185
4.114000 0.008183
4.115000 0.008183
4.116000 0.008183
4.117000 0.008183
4.118000 0.008186
4.119000 0.008190
4.120000 0.008198
4.121000 0.008209
4.122000 0.008221
4.123000 0.008232
4.124000 0.008240
4.125000 0.008241
4.126000 0.008232
4.127000 0.008219
4.128000 0.008214
4.129000 0.008215
4.130000 0.008219
4.131000 0.008221
4.132000 0.008219
4.133000 0.008214
4.134000 0.008207
4.135000 0.008205
4.136000 0.008209
4.137000 0.008217
4.138000 0.008223
4.139000 0.008228
4.140000 0.008232
4.141000 0.008235
4.142000 0.008237
4.143000 0.008239
4.144000 0.008242
4.145000 0.008245
4.146000 0.008248
4.147000 0.008253
4.148000 0.008258
4.149000 0.008265
4.150000 0.008274
4.151000 0.008282
4.152000 0.008289
4.153000 0.008291
4.154000 0.008287
4.155000 0.008290
4.156000 0.008300
4.157000 0.008315
4.158000 0.008333
4.159000 0.008349
4.160000 0.008361
4.161000 0.008368
4.162000 0.008366
4.163000 0.008370
4.164000 0.008382
4.165000 0.008402
4.166000 0.008428
4.167000 0.008461
4.168000 0.008498
4.169000 0.008540
4.170000 0.008582
4.171000 0.008623
4.172000 0.008658
4.173000 0.008688
4.174000 0.008714
4.175000 0.008734
4.176000 0.008750
4.177000 0.008760
4.178000 0.008761
4.179000 0.008759
4.180000 0.008770
4.181000 0.008788
4.182000 0.008809
4.183000 0.008828
4.184000 0.008839
4.185000 0.008840
4.186000 0.008830
4.187000 0.008822
4.188000 0.008821
4.189000 0.008818
4.190000 0.008809
4.191000 0.008811
4.192000 0.008824
4.193000 0.008841
4.194000 0.008855
4.195000 0.008859
4.196000 0.008854
4.197000 0.008864
4.198000 0.008890
4.199000 0.008934
4.200000 0.008996
4.201000 0.009079
4.202000 0.009183
4.203000 0.009305
4.204000 0.009446
4.205000 0.009600
4.206000 0.009760
4.207000 0.009916
4.208000 0.010052
4.209000 0.010153
4.210000 0.010212
4.211000 0.010225
4.212000 0.010249
4.213000 0.010305
4.214000 0.010379
4.215000 0.010457
4.216000 0.010528
4.217000 0.010582
4.218000 0.010609
4.219000 0.010606
4.220000 0.010625
4.221000 0.010657
4.222000 0.010690
4.223000 0.010707
4.224000 0.010698
4.225000 0.010726
4.226000 0.010792
4.227000 0.010892
4.228000 0.011015
4.229000 0.011141
4.230000 0.011254
4.231000 0.011339
4.232000 0.011388
4.233000 0.011401
4.234000 0.011412
4.235000 0.011439
4.236000 0.011470
4.237000 0.011504
4.238000 0.011543
4.239000 0.011593
4.240000 0.011659
4.241000 0.011745
4.242000 0.011849
4.243000 0.011970
4.244000 0.012112
4.245000 0.012277
4.246000 0.012458
4.247000 0.012636
4.248000 0.012781
4.249000 0.012857
4.250000 0.012878
4.251000 0.013006
4.252000 0.013233
4.253000 0.013532
4.254000 0.013863
4.255000 0.014190
4.256000 0.014480
4.257000 0.014714
4.258000 0.014886
4.259000 0.014996
4.260000 0.015047
4.261000 0.015050
4.262000 0.015108
4.263000 0.015218
4.264000 0.015378
4.265000 0.015584
4.266000 0.015837
4.267000 0.016133
4.268000 0.016473
4.269000 0.016852
4.270000 0.017266
4.271000 0.017705
4.272000 0.018153
4.273000 0.018583
4.274000 0.018963
4.275000 0.019251
4.276000 0.019407
4.277000 0.019410
4.278000 0.019585
4.279000 0.019913
4.280000 0.020353
4.281000 0.020847
4.282000 0.021346
4.283000 0.021810
4.284000 0.022223
4.285000 0.022587
4.286000 0.022908
4.287000 0.023192
4.288000 0.023441
4.289000 0.023651
4.290000 0.023814
4.291000 0.023922
4.292000 0.023976
4.293000 0.023980
4.294000 0.023985
4.295000 0.024018
4.296000 0.024067
4.297000 0.024123
4.298000 0.024185
4.299000 0.024246
4.300000 0.024305
4.301000 0.024365
4.302000 0.024431
4.303000 0.024511
4.304000 0.024611
4.305000 0.024741
4.306000 0.024905
4.307000 0.025103
4.308000 0.025334
4.309000 0.025590
4.310000 0.025861
4.311000 0.026130
4.312000 0.026376
4.313000 0.026572
4.314000 0.026695
4.315000 0.026730
4.316000 0.026737
4.317000 0.026819
4.318000 0.026956
4.319000 0.027126
4.320000 0.027309
4.321000 0.027486
4.322000 0.027642
4.323000 0.027767
4.324000 0.027855
4.325000 0.027900
4.326000 0.027901
4.327000 0.027932
4.328000 0.027996
4.329000 0.028064
4.330000 0.028102
4.331000 0.028129
4.332000 0.028251
4.333000 0.028476
4.334000 0.028792
4.335000 0.029167
4.336000 0.029563
4.337000 0.029940
4.338000 0.030266
4.339000 0.030525
4.340000 0.030707
4.341000 0.030815
4.342000 0.030852
4.343000 0.030840
4.344000 0.030879
4.345000 0.030957
4.346000 0.031062
4.347000 0.031182
4.348000 0.031310
4.349000 0.031439
4.350000 0.031567
4.351000 0.031694
4.352000 0.031822
4.353000 0.031954
4.354000 0.032092
4.355000 0.032237
4.356000 0.032388
4.357000 0.032532
4.358000 0.032656
4.359000 0.032744
4.360000 0.032789
4.361000 0.032792
4.362000 0.032766
4.363000 0.032727
4.364000 0.032695
4.365000 0.032681
4.366000 0.032692
4.367000 0.032726
4.368000 0.032781
4.369000 0.032850
4.370000 0.032928
4.371000 0.033015
4.372000 0.033110
4.373000 0.033211
4.374000 0.033311
4.375000 0.033398
4.376000 0.033462
4.377000 0.033490
4.378000 0.033475
4.379000 0.033470
4.380000 0.033535
4.381000 0.033683
4.382000 0.033927
4.383000 0.034273
4.384000 0.034720
4.385000 0.035252
4.386000 0.035837
4.387000 0.036440
4.388000 0.037013
4.389000 0.037517
4.390000 0.037923
4.391000 0.038218
4.392000 0.038405
4.393000 0.038491
4.394000 0.038489
4.395000 0.038503
4.396000 0.038578
4.397000 0.038705
4.398000 0.038877
4.399000 0.039089
4.400000 0.039336
4.401000 0.039611
4.402000 0.039895
4.403000 0.040171
4.404000 0.040426
4.405000 0.040650
4.406000 0.040827
4.407000 0.040947
4.408000 0.041000
4.409000 0.040984
4.410000 0.040907
4.411000 0.040781
4.412000 0.040627
4.413000 0.040466
4.414000 0.040318
4.415000 0.040190
4.416000 0.040090
4.417000 0.040025
4.418000 0.039993
4.419000 0.039983
4.420000 0.039980
4.421000 0.039968
4.422000 0.039938
4.423000 0.039960
4.424000 0.040036
4.425000 0.040162
4.426000 0.040316
4.427000 0.040487
4.428000 0.040657
4.429000 0.040807
4.430000 0.040917
4.431000 0.040973
4.432000 0.040968
4.433000 0.040947
4.434000 0.040974
4.435000 0.041033
4.436000 0.041106
4.437000 0.041177
4.438000 0.041237
4.439000 0.041281
4.440000 0.041302
4.441000 0.041296
4.442000 0.041292
4.443000 0.041341
4.444000 0.041436
4.445000 0.041552
4.446000 0.041665
4.447000 0.041757
4.448000 0.041818
4.449000 0.041846
4.450000 0.041850
4.451000 0.041840
4.452000 0.041823
4.453000 0.041806
4.454000 0.041830
4.455000 0.041908
4.456000 0.042052
4.457000 0.042254
4.458000 0.042497
4.459000 0.042754
4.460000 0.042999
4.461000 0.043211
4.462000 0.043374
4.463000 0.043479
4.464000 0.043527
4.465000 0.043517
4.466000 0.043525
4.467000 0.043582
4.468000 0.043680
4.469000 0.043804
4.470000 0.043938
4.471000 0.044061
4.472000 0.044159
4.473000 0.044225
4.474000 0.044261
4.475000 0.044277
4.476000 0.044288
4.477000 0.044308
4.478000 0.044351
4.479000 0.044428
4.480000 0.044539
4.481000 0.044679
4.482000 0.044836
4.483000 0.044997
4.484000 0.045151
4.485000 0.045294
4.486000 0.045425
4.487000 0.045536
4.488000 0.045619
4.489000 0.045665
4.490000 0.045673
4.491000 0.045659
4.492000 0.045687
4.493000 0.045747
4.494000 0.045816
4.495000 0.045895
4.496000 0.045988
4.497000 0.046099
4.498000 0.046227
4.499000 0.046368
4.500000 0.046519
4.501000 0.046680
4.502000 0.046847
4.503000 0.047008
4.504000 0.047154
4.505000 0.047269
4.506000 0.047340
4.507000 0.047355
4.508000 0.047361
4.509000 0.047426
4.510000 0.047539
4.511000 0.047680
4.512000 0.047821
4.513000 0.047942
4.514000 0.048031
4.515000 0.048083
4.516000 0.048106
4.517000 0.048110
4.518000 0.048108
4.519000 0.048112
4.520000 0.048129
4.521000 0.048159
4.522000 0.048196
4.523000 0.048234
4.524000 0.048271
4.525000 0.048308
4.526000 0.048344
4.527000 0.048369
4.528000 0.048365
4.529000 0.048365
4.530000 0.048377
4.531000 0.048388
4.532000 0.048388
4.533000 0.048397
4.534000 0.048441
4.535000 0.048513
4.536000 0.048607
4.537000 0.048713
4.538000 0.048815
4.539000 0.048891
4.540000 0.048918
4.541000 0.048933
4.542000 0.049012
4.543000 0.049143
4.544000 0.049302
4.545000 0.049462
4.546000 0.049602
4.547000 0.049703
4.548000 0.049756
4.549000 0.049760
4.550000 0.049767
4.551000 0.049790
4.552000 0.049808
4.553000 0.049814
4.554000 0.049817
4.555000 0.049817
4.556000 0.049809
4.557000 0.049813
4.558000 0.049828
4.559000 0.049845
4.560000 0.049849
4.561000 0.049856
4.562000 0.049919
4.563000 0.050033
4.564000 0.050182
4.565000 0.050344
4.566000 0.050491
4.567000 0.050599
4.568000 0.050658
4.569000 0.050673
4.570000 0.050655
4.571000 0.050623
4.572000 0.050587
4.573000 0.050554
4.574000 0.050522
4.575000 0.050485
4.576000 0.050472
4.577000 0.050495
4.578000 0.050557
4.579000 0.050648
4.580000 0.050740
4.581000 0.050825
4.582000 0.050893
4.583000 0.050940
4.584000 0.050969
4.585000 0.050988
4.586000 0.051009
4.587000 0.051034
4.588000 0.051070
4.589000 0.051127
4.590000 0.051199
4.591000 0.051259
4.592000 0.051298
4.593000 0.051319
4.594000 0.051333
4.595000 0.051352
4.596000 0.051379
4.597000 0.051395
4.598000 0.051404
4.599000 0.051408
4.600000 0.051408
4.601000 0.051406
4.602000 0.051404
4.603000 0.051404
4.604000 0.051404
4.605000 0.051399
4.606000 0.051379
4.607000 0.051333
4.608000 0.051256
4.609000 0.051156
4.610000 0.051139
4.611000 0.051201
4.612000 0.051264
4.613000 0.051292
4.614000 0.051291
4.615000 0.051274
4.616000 0.051256
4.617000 0.051246
4.618000 0.051252
4.619000 0.051272
4.620000 0.051250
4.621000 0.051227
4.622000 0.051220
4.623000 0.051244
4.624000 0.051304
4.625000 0.051334
4.626000 0.051328
4.627000 0.051285
4.628000 0.051217
4.629000 0.051140
4.630000 0.051074
4.631000 0.051035
4.632000 0.051037
4.633000 0.051083
4.634000 0.051141
4.635000 0.051194
4.636000 0.051245
4.637000 0.051290
4.638000 0.051320
4.639000 0.051321
4.640000 0.051282
4.641000 0.051201
4.642000 0.051111
4.643000 0.051014
4.644000 0.050900
4.645000 0.050763
4.646000 0.050609
4.647000 0.050457
4.648000 0.050339
4.649000 0.050290
4.650000 0.050296
4.651000 0.050189
4.652000 0.049977
4.653000 0.049684
4.654000 0.049347
4.655000 0.049022
4.656000 0.048744
4.657000 0.048532
4.658000 0.048393
4.659000 0.048325
4.660000 0.048324
4.661000 0.048371
4.662000 0.048359
4.663000 0.048283
4.664000 0.048144
4.665000 0.047944
4.666000 0.047688
4.667000 0.047389
4.668000 0.047049
4.669000 0.046677
4.670000 0.046281
4.671000 0.045874
4.672000 0.045470
4.673000 0.045094
4.674000 0.044777
4.675000 0.044557
4.676000 0.044474
4.677000 0.044547
4.678000 0.044452
4.679000 0.044209
4.680000 0.043863
4.681000 0.043471
4.682000 0.043089
4.683000 0.042755
4.684000 0.042485
4.685000 0.042281
4.686000 0.042135
4.687000 0.042036
4.688000 0.041970
4.689000 0.041917
4.690000 0.041855
4.691000 0.041764
4.692000 0.041758
4.693000 0.041876
4.694000 0.042041
4.695000 0.042195
4.696000 0.042318
4.697000 0.042403
4.698000 0.042446
4.699000 0.042451
4.700000 0.042420
4.701000 0.042353
4.702000 0.042298
4.703000 0.042265
4.704000 0.042253
4.705000 0.042260
4.706000 0.042279
4.707000 0.042297
4.708000 0.042283
4.709000 0.042189
4.710000 0.041967
4.711000 0.041769
4.712000 0.041747
4.713000 0.041902
4.714000 0.042204
4.715000 0.042608
4.716000 0.043007
4.717000 0.043273
4.718000 0.043417
4.719000 0.043461
4.720000 0.043433
4.721000 0.043359
4.722000 0.043262
4.723000 0.043159
4.724000 0.043063
4.725000 0.043032
4.726000 0.043069
4.727000 0.043095
4.728000 0.043103
4.729000 0.043118
4.730000 0.043171
4.731000 0.043238
4.732000 0.043212
4.733000 0.043081
4.734000 0.042858
4.735000 0.042572
4.736000 0.042263
4.737000 0.041969
4.738000 0.041724
4.739000 0.041547
4.740000 0.041442
4.741000 0.041402
4.742000 0.041419
4.743000 0.041465
4.744000 0.041442
4.745000 0.041365
4.746000 0.041252
4.747000 0.041138
4.748000 0.041026
4.749000 0.040912
4.750000 0.040793
4.751000 0.040667
4.752000 0.040546
4.753000 0.040431
4.754000 0.040313
4.755000 0.040188
4.756000 0.040055
4.757000 0.039925
4.758000 0.039817
4.759000 0.039744
4.760000 0.039713
4.761000 0.039718
4.762000 0.039743
4.763000 0.039767
4.764000 0.039769
4.765000 0.039738
4.766000 0.039672
4.767000 0.039577
4.768000 0.039461
4.769000 0.039336
4.770000 0.039210
4.771000 0.039088
4.772000 0.038969
4.773000 0.038856
4.774000 0.038756
4.775000 0.038682
4.776000 0.038645
4.777000 0.038651
4.778000 0.038696
4.779000 0.038706
4.780000 0.038619
4.781000 0.038518
4.782000 0.038387
4.783000 0.038203
4.784000 0.037947
4.785000 0.037613
4.786000 0.037213
4.787000 0.036776
4.788000 0.036341
4.789000 0.035947
4.790000 0.035626
4.791000 0.035393
4.792000 0.035251
4.793000 0.035190
4.794000 0.035203
4.795000 0.035187
4.796000 0.035100
4.797000 0.034952
4.798000 0.034755
4.799000 0.034527
4.800000 0.034279
4.801000 0.034018
4.802000 0.033752
4.803000 0.033491
4.804000 0.033247
4.805000 0.033026
4.806000 0.032836
4.807000 0.032683
4.808000 0.032571
4.809000 0.032501
4.810000 0.032470
4.811000 0.032468
4.812000 0.032487
4.813000 0.032512
4.814000 0.032532
4.815000 0.032544
4.816000 0.032543
4.817000 0.032524
4.818000 0.032488
4.819000 0.032445
4.820000 0.032408
4.821000 0.032390
4.822000 0.032403
4.823000 0.032376
4.824000 0.032307
4.825000 0.032200
4.826000 0.032063
4.827000 0.031912
4.828000 0.031767
4.829000 0.031650
4.830000 0.031576
4.831000 0.031553
4.832000 0.031576
4.833000 0.031588
4.834000 0.031518
4.835000 0.031442
4.836000 0.031388
4.837000 0.031371
4.838000 0.031402
4.839000 0.031486
4.840000 0.031624
4.841000 0.031813
4.842000 0.032014
4.843000 0.032162
4.844000 0.032250
4.845000 0.032286
4.846000 0.032287
4.847000 0.032271
4.848000 0.032256
4.849000 0.032254
4.850000 0.032262
4.851000 0.032277
4.852000 0.032299
4.853000 0.032320
4.854000 0.032303
4.855000 0.032233
4.856000 0.032100
4.857000 0.031904
4.858000 0.031663
4.859000 0.031403
4.860000 0.031150
4.861000 0.030928
4.862000 0.030751
4.863000 0.030628
4.864000 0.030561
4.865000 0.030550
4.866000 0.030520
4.867000 0.030440
4.868000 0.030317
4.869000 0.030166
4.870000 0.030005
4.871000 0.029853
4.872000 0.029725
4.873000 0.029629
4.874000 0.029563
4.875000 0.029515
4.876000 0.029470
4.877000 0.029417
4.878000 0.029340
4.879000 0.029229
4.880000 0.029082
4.881000 0.028905
4.882000 0.028711
4.883000 0.028512
4.884000 0.028320
4.885000 0.028138
4.886000 0.027973
4.887000 0.027830
4.888000 0.027721
4.889000 0.027655
4.890000 0.027634
4.891000 0.027642
4.892000 0.027617
4.893000 0.027569
4.894000 0.027504
4.895000 0.027423
4.896000 0.027323
4.897000 0.027204
4.898000 0.027062
4.899000 0.026900
4.900000 0.026719
4.901000 0.026521
4.902000 0.026313
4.903000 0.026108
4.904000 0.025925
4.905000 0.025778
4.906000 0.025683
4.907000 0.025649
4.908000 0.025628
4.909000 0.025550
4.910000 0.025433
4.911000 0.025292
4.912000 0.025147
4.913000 0.025016
4.914000 0.024914
4.915000 0.024846
4.916000 0.024806
4.917000 0.024786
4.918000 0.024770
4.919000 0.024747
4.920000 0.024710
4.921000 0.024658
4.922000 0.024598
4.923000 0.024537
4.924000 0.024480
4.925000 0.024428
4.926000 0.024388
4.927000 0.024366
4.928000 0.024366
4.929000 0.024357
4.930000 0.024334
4.931000 0.024313
4.932000 0.024308
4.933000 0.024299
4.934000 0.024259
4.935000 0.024189
4.936000 0.024093
4.937000 0.023982
4.938000 0.023874
4.939000 0.023793
4.940000 0.023760
4.941000 0.023740
4.942000 0.023656
4.943000 0.023522
4.944000 0.023360
4.945000 0.023199
4.946000 0.023061
4.947000 0.022964
4.948000 0.022917
4.949000 0.022920
4.950000 0.022919
4.951000 0.022903
4.952000 0.022893
4.953000 0.022901
4.954000 0.022917
4.955000 0.022931
4.956000 0.022947
4.957000 0.022948
4.958000 0.022938
4.959000 0.022929
4.960000 0.022937
4.961000 0.022951
4.962000 0.022916
4.963000 0.022828
4.964000 0.022697
4.965000 0.022544
4.966000 0.022398
4.967000 0.022282
4.968000 0.022207
4.969000 0.022170
4.970000 0.022160
4.971000 0.022163
4.972000 0.022168
4.973000 0.022171
4.974000 0.022175
4.975000 0.022191
4.976000 0.022188
4.977000 0.022159
4.978000 0.022103
4.979000 0.022022
4.980000 0.021926
4.981000 0.021826
4.982000 0.021736
4.983000 0.021667
4.984000 0.021622
4.985000 0.021598
4.986000 0.021582
4.987000 0.021562
4.988000 0.021526
4.989000 0.021471
4.990000 0.021407
4.991000 0.021346
4.992000 0.021295
4.993000 0.021257
4.994000 0.021228
4.995000 0.021204
4.996000 0.021179
4.997000 0.021147
4.998000 0.021106
4.999000 0.021051
5.000000 0.020980
5.001000 0.020891
5.002000 0.020780
5.003000 0.020647
5.004000 0.020497
5.005000 0.020340
5.006000 0.020194
5.007000 0.020080
5.008000 0.020019
5.009000 0.020015
5.010000 0.019971
5.011000 0.019894
5.012000 0.019804
5.013000 0.019720
5.014000 0.019647
5.015000 0.019587
5.016000 0.019539
5.017000 0.019500
5.018000 0.019473
5.019000 0.019461
5.020000 0.019467
5.021000 0.019458
5.022000 0.019431
5.023000 0.019388
5.024000 0.019334
5.025000 0.019273
5.026000 0.019209
5.027000 0.019148
5.028000 0.019093
5.029000 0.019042
5.030000 0.018993
5.031000 0.018946
5.032000 0.018901
5.033000 0.018851
5.034000 0.018790
5.035000 0.018715
5.036000 0.018630
5.037000 0.018551
5.038000 0.018488
5.039000 0.018449
5.040000 0.018437
5.041000 0.018450
5.042000 0.018457
5.043000 0.018452
5.044000 0.018444
5.045000 0.018438
5.046000 0.018432
5.047000 0.018425
5.048000 0.018417
5.049000 0.018407
5.050000 0.018398
5.051000 0.018392
5.052000 0.018392
5.053000 0.018399
5.054000 0.018415
5.055000 0.018421
5.056000 0.018415
5.057000 0.018396
5.058000 0.018364
5.059000 0.018319
5.060000 0.018268
5.061000 0.018217
5.062000 0.018171
5.063000 0.018137
5.064000 0.018116
5.065000 0.018108
5.066000 0.018108
5.067000 0.018110
5.068000 0.018113
5.069000 0.018108
5.070000 0.018092
5.071000 0.018063
5.072000 0.018022
5.073000 0.017970
5.074000 0.017910
5.075000 0.017845
5.076000 0.017779
5.077000 0.017713
5.078000 0.017648
5.079000 0.017579
5.080000 0.017504
5.081000 0.017417
5.082000 0.017315
5.083000 0.017196
5.084000 0.017057
5.085000 0.016897
5.086000 0.016717
5.087000 0.016528
5.088000 0.016344
5.089000 0.016186
5.090000 0.016084
5.091000 0.016062
5.092000 0.016007
5.093000 0.015875
5.094000 0.015691
5.095000 0.015491
5.096000 0.015309
5.097000 0.015165
5.098000 0.015065
5.099000 0.015007
5.100000 0.014983
5.101000 0.014991
5.102000 0.014978
5.103000 0.014931
5.104000 0.014845
5.105000 0.014715
5.106000 0.014541
5.107000 0.014335
5.108000 0.014126
5.109000 0.013966
5.110000 0.013916
5.111000 0.013840
5.112000 0.013609
5.113000 0.013249
5.114000 0.012814
5.115000 0.012365
5.116000 0.011949
5.117000 0.011594
5.118000 0.011309
5.119000 0.011094
5.120000 0.010943
5.121000 0.010847
5.122000 0.010800
5.123000 0.010792
5.124000 0.010816
5.125000 0.010819
5.126000 0.010800
5.127000 0.010759
5.128000 0.010702
5.129000 0.010631
5.130000 0.010548
5.131000 0.010455
5.132000 0.010362
5.133000 0.010275
5.134000 0.010195
5.135000 0.010120
5.136000 0.010046
5.137000 0.009969
5.138000 0.009884
5.139000 0.009791
5.140000 0.009702
5.141000 0.009622
5.142000 0.009553
5.143000 0.009506
5.144000 0.009491
5.145000 0.009505
5.146000 0.009544
5.147000 0.009579
5.148000 0.009613
5.149000 0.009648
5.150000 0.009689
5.151000 0.009738
5.152000 0.009777
5.153000 0.009802
5.154000 0.009815
5.155000 0.009817
5.156000 0.009811
5.157000 0.009799
5.158000 0.009780
5.159000 0.009756
5.160000 0.009728
5.161000 0.009697
5.162000 0.009670
5.163000 0.009651
5.164000 0.009645
5.165000 0.009654
5.166000 0.009678
5.167000 0.009715
5.168000 0.009758
5.169000 0.009804
5.170000 0.009844
5.171000 0.009874
5.172000 0.009893
5.173000 0.009898
5.174000 0.009889
5.175000 0.009866
5.176000 0.009827
5.177000 0.009778
5.178000 0.009732
5.179000 0.009712
5.180000 0.009719
5.181000 0.009662
5.182000 0.009542
5.183000 0.009376
5.184000 0.009188
5.185000 0.009003
5.186000 0.008842
5.187000 0.008713
5.188000 0.008615
5.189000 0.008545
5.190000 0.008496
5.191000 0.008462
5.192000 0.008439
5.193000 0.008426
5.194000 0.008422
5.195000 0.008425
5.196000 0.008436
5.197000 0.008451
5.198000 0.008472
5.199000 0.008489
5.200000 0.008501
5.201000 0.008512
5.202000 0.008524
5.203000 0.008537
5.204000 0.008550
5.205000 0.008562
5.206000 0.008573
5.207000 0.008583
5.208000 0.008590
5.209000 0.008595
5.210000 0.008596
5.211000 0.008594
5.212000 0.008588
5.213000 0.008577
5.214000 0.008562
5.215000 0.008544
5.216000 0.008523
5.217000 0.008503
5.218000 0.008486
5.219000 0.008473
5.220000 0.008463
5.221000 0.008454
5.222000 0.008445
5.223000 0.008434
5.224000 0.008418
5.225000 0.008401
5.226000 0.008381
5.227000 0.008358
5.228000 0.008327
5.229000 0.008290
5.230000 0.008248
5.231000 0.008208
5.232000 0.008179
5.233000 0.008172
5.234000 0.008194
5.235000 0.008181
5.236000 0.008121
5.237000 0.008017
5.238000 0.007877
5.239000 0.007710
5.240000 0.007522
5.241000 0.007322
5.242000 0.007121
5.243000 0.006931
5.244000 0.006762
5.245000 0.006620
5.246000 0.006502
5.247000 0.006407
5.248000 0.006327
5.249000 0.006261
5.250000 0.006212
5.251000 0.006177
5.252000 0.006156
5.253000 0.006146
5.254000 0.006146
5.255000 0.006157
5.256000 0.006176
5.257000 0.006202
5.258000 0.006233
5.259000 0.006267
5.260000 0.006302
5.261000 0.006334
5.262000 0.006359
5.263000 0.006372
5.264000 0.006369
5.265000 0.006375
5.266000 0.006394
5.267000 0.006421
5.268000 0.006453
5.269000 0.006485
5.270000 0.006517
5.271000 0.006551
5.272000 0.006587
5.273000 0.006623
5.274000 0.006661
5.275000 0.006697
5.276000 0.006729
5.277000 0.006757
5.278000 0.006778
5.279000 0.006793
5.280000 0.006802
5.281000 0.006805
5.282000 0.006801
5.283000 0.006794
5.284000 0.006783
5.285000 0.006770
5.286000 0.006756
5.287000 0.006741
5.288000 0.006723
5.289000 0.006708
5.290000 0.006697
5.291000 0.006689
5.292000 0.006683
5.293000 0.006678
5.294000 0.006673
5.295000 0.006668
5.296000 0.006661
5.297000 0.006654
5.298000 0.006646
5.299000 0.006638
5.300000 0.006630
5.301000 0.006622
5.302000 0.006616
5.303000 0.006611
5.304000 0.006608
5.305000 0.006607
5.306000 0.006609
5.307000 0.006613
5.308000 0.006621
5.309000 0.006631
5.310000 0.006639
5.311000 0.006648
5.312000 0.006656
5.313000 0.006665
5.314000 0.006675
5.315000 0.006685
5.316000 0.006697
5.317000 0.006710
5.318000 0.006725
5.319000 0.006744
5.320000 0.006765
5.321000 0.006788
5.322000 0.006811
5.323000 0.006833
5.324000 0.006852
5.325000 0.006865
5.326000 0.006871
5.327000 0.006869
5.328000 0.006868
5.329000 0.006873
5.330000 0.006885
5.331000 0.006903
5.332000 0.006926
5.333000 0.006951
5.334000 0.006977
5.335000 0.007003
5.336000 0.007027
5.337000 0.007047
5.338000 0.007062
5.339000 0.007072
5.340000 0.007075
5.341000 0.007073
5.342000 0.007070
5.343000 0.007069
5.344000 0.007070
5.345000 0.007074
5.346000 0.007078
5.347000 0.007082
5.348000 0.007086
5.349000 0.007091
5.350000 0.007096
5.351000 0.007104
5.352000 0.007113
5.353000 0.007122
5.354000 0.007128
5.355000 0.007129
5.356000 0.007121
5.357000 0.007099
5.358000 0.007084
5.359000 0.007078
5.360000 0.007076
5.361000 0.007074
5.362000 0.007070
5.363000 0.007060
5.364000 0.007045
5.365000 0.007028
5.366000 0.007008
5.367000 0.006986
5.368000 0.006962
5.369000 0.006937
5.370000 0.006917
5.371000 0.006903
5.372000 0.006894
5.373000 0.006891
5.374000 0.006894
5.375000 0.006901
5.376000 0.006913
5.377000 0.006929
5.378000 0.006948
5.379000 0.006972
5.380000 0.006999
5.381000 0.007030
5.382000 0.007065
5.383000 0.007106
5.384000 0.007152
5.385000 0.007204
5.386000 0.007262
5.387000 0.007325
5.388000 0.007396
5.389000 0.007474
5.390000 0.007558
5.391000 0.007649
5.392000 0.007747
5.393000 0.007849
5.394000 0.007958
5.395000 0.008071
5.396000 0.008188
5.397000 0.008307
5.398000 0.008426
5.399000 0.008544
5.400000 0.008660
5.401000 0.008770
5.402000 0.008872
5.403000 0.008953
5.404000 0.008994
5.405000 0.009010
5.406000 0.009104
5.407000 0.009285
5.408000 0.009549
5.409000 0.009876
5.410000 0.010238
5.411000 0.010602
5.412000 0.010940
5.413000 0.011236
5.414000 0.011481
5.415000 0.011674
5.416000 0.011818
5.417000 0.011916
5.418000 0.011974
5.419000 0.011996
5.420000 0.011990
5.421000 0.012013
5.422000 0.012063
5.423000 0.012138
5.424000 0.012236
5.425000 0.012354
5.426000 0.012492
5.427000 0.012646
5.428000 0.012814
5.429000 0.012994
5.430000 0.013184
5.431000 0.013378
5.432000 0.013570
5.433000 0.013763
5.434000 0.013959
5.435000 0.014162
5.436000 0.014370
5.437000 0.014573
5.438000 0.014764
5.439000 0.014933
5.440000 0.015067
5.441000 0.015147
5.442000 0.015160
5.443000 0.015181
5.444000 0.015275
5.445000 0.015429
5.446000 0.015623
5.447000 0.015831
5.448000 0.016031
5.449000 0.016198
5.450000 0.016316
5.451000 0.016375
5.452000 0.016372
5.453000 0.016402
5.454000 0.016489
5.455000 0.016623
5.456000 0.016789
5.457000 0.016965
5.458000 0.017132
5.459000 0.017271
5.460000 0.017360
5.461000 0.017381
5.462000 0.017430
5.463000 0.017547
5.464000 0.017721
5.465000 0.017939
5.466000 0.018183
5.467000 0.018431
5.468000 0.018670
5.469000 0.018888
5.470000 0.019076
5.471000 0.019227
5.472000 0.019336
5.473000 0.019405
5.474000 0.019441
5.475000 0.019455
5.476000 0.019464
5.477000 0.019481
5.478000 0.019513
5.479000 0.019560
5.480000 0.019622
5.481000 0.019693
5.482000 0.019768
5.483000 0.019847
5.484000 0.019924
5.485000 0.019996
5.486000 0.020054
5.487000 0.020084
5.488000 0.020081
5.489000 0.020105
5.490000 0.020158
5.491000 0.020236
5.492000 0.020338
5.493000 0.020466
5.494000 0.020623
5.495000 0.020813
5.496000 0.021037
5.497000 0.021292
5.498000 0.021569
5.499000 0.021851
5.500000 0.022114
5.501000 0.022323
5.502000 0.022444
5.503000 0.022450
5.504000 0.022538
5.505000 0.022732
5.506000 0.023011
5.507000 0.023342
5.508000 0.023689
5.509000 0.024024
5.510000 0.024329
5.511000 0.024591
5.512000 0.024799
5.513000 0.024945
5.514000 0.025026
5.515000 0.025045
5.516000 0.025056
5.517000 0.025111
5.518000 0.025199
5.519000 0.025311
5.520000 0.025439
5.521000 0.025582
5.522000 0.025741
5.523000 0.025916
5.524000 0.026111
5.525000 0.026331
5.526000 0.026575
5.527000 0.026830
5.528000 0.027068
5.529000 0.027252
5.530000 0.027340
5.531000 0.027369
5.532000 0.027536
5.533000 0.027830
5.534000 0.028226
5.535000 0.028690
5.536000 0.029184
5.537000 0.029677
5.538000 0.030142
5.539000 0.030560
5.540000 0.030907
5.541000 0.031180
5.542000 0.031382
5.543000 0.031510
5.544000 0.031560
5.545000 0.031538
5.546000 0.031544
5.547000 0.031587
5.548000 0.031664
5.549000 0.031771
5.550000 0.031902
5.551000 0.032053
5.552000 0.032222
5.553000 0.032405
5.554000 0.032604
5.555000 0.032817
5.556000 0.033043
5.557000 0.033280
5.558000 0.033527
5.559000 0.033783
5.560000 0.034049
5.561000 0.034321
5.562000 0.034594
5.563000 0.034856
5.564000 0.035093
5.565000 0.035290
5.566000 0.035437
5.567000 0.035527
5.568000 0.035550
5.569000 0.035496
5.570000 0.035509
5.571000 0.035618
5.572000 0.035814
5.573000 0.036075
5.574000 0.036376
5.575000 0.036683
5.576000 0.036973
5.577000 0.037232
5.578000 0.037456
5.579000 0.037643
5.580000 0.037792
5.581000 0.037898
5.582000 0.037958
5.583000 0.037967
5.584000 0.037971
5.585000 0.038024
5.586000 0.038126
5.587000 0.038274
5.588000 0.038463
5.589000 0.038693
5.590000 0.038959
5.591000 0.039253
5.592000 0.039554
5.593000 0.039828
5.594000 0.040030
5.595000 0.040117
5.596000 0.040115
5.597000 0.040273
5.598000 0.040568
5.599000 0.040957
5.600000 0.041385
5.601000 0.041803
5.602000 0.042172
5.603000 0.042471
5.604000 0.042691
5.605000 0.042832
5.606000 0.042895
5.607000 0.042883
5.608000 0.042894
5.609000 0.042982
5.610000 0.043144
5.611000 0.043372
5.612000 0.043654
5.613000 0.043978
5.614000 0.044329
5.615000 0.044691
5.616000 0.045046
5.617000 0.045373
5.618000 0.045652
5.619000 0.045860
5.620000 0.045979
5.621000 0.045996
5.622000 0.046070
5.623000 0.046233
5.624000 0.046465
5.625000 0.046733
5.626000 0.047008
5.627000 0.047266
5.628000 0.047488
5.629000 0.047657
5.630000 0.047764
5.631000 0.047801
5.632000 0.047783
5.633000 0.047835
5.634000 0.047955
5.635000 0.048136
5.636000 0.048368
5.637000 0.048638
5.638000 0.048926
5.639000 0.049207
5.640000 0.049466
5.641000 0.049686
5.642000 0.049856
5.643000 0.049964
5.644000 0.050011
5.645000 0.050007
5.646000 0.050021
5.647000 0.050066
5.648000 0.050140
5.649000 0.050239
5.650000 0.050356
5.651000 0.050481
5.652000 0.050597
5.653000 0.050682
5.654000 0.050718
5.655000 0.050704
5.656000 0.050683
5.657000 0.050648
5.658000 0.050655
5.659000 0.050724
5.660000 0.050853
5.661000 0.051021
5.662000 0.051197
5.663000 0.051353
5.664000 0.051468
5.665000 0.051504
5.666000 0.051502
5.667000 0.051547
5.668000 0.051625
5.669000 0.051713
5.670000 0.051796
5.671000 0.051867
5.672000 0.051930
5.673000 0.051999
5.674000 0.052086
5.675000 0.052196
5.676000 0.052325
5.677000 0.052469
5.678000 0.052619
5.679000 0.052769
5.680000 0.052907
5.681000 0.053025
5.682000 0.053106
5.683000 0.053138
5.684000 0.053143
5.685000 0.053209
5.686000 0.053334
5.687000 0.053512
5.688000 0.053733
5.689000 0.053981
5.690000 0.054241
5.691000 0.054497
5.692000 0.054737
5.693000 0.054948
5.694000 0.055123
5.695000 0.055259
5.696000 0.055354
5.697000 0.055411
5.698000 0.055431
5.699000 0.055431
5.700000 0.055465
5.701000 0.055533
5.702000 0.055633
5.703000 0.055762
5.704000 0.055911
5.705000 0.056073
5.706000 0.056233
5.707000 0.056382
5.708000 0.056512
5.709000 0.056621
5.710000 0.056711
5.711000 0.056793
5.712000 0.056877
5.713000 0.056977
5.714000 0.057097
5.715000 0.057237
5.716000 0.057387
5.717000 0.057528
5.718000 0.057638
5.719000 0.057704
5.720000 0.057724
5.721000 0.057707
5.722000 0.057694
5.723000 0.057686
5.724000 0.057676
5.725000 0.057667
5.726000 0.057668
5.727000 0.057683
5.728000 0.057710
5.729000 0.057747
5.730000 0.057799
5.731000 0.057869
5.732000 0.057955
5.733000 0.058056
5.734000 0.058160
5.735000 0.058252
5.736000 0.058319
5.737000 0.058356
5.738000 0.058358
5.739000 0.058366
5.740000 0.058423
5.741000 0.058533
5.742000 0.058695
5.743000 0.058908
5.744000 0.059166
5.745000 0.059458
5.746000 0.059769
5.747000 0.060083
5.748000 0.060390
5.749000 0.060666
5.750000 0.060868
5.751000 0.060939
5.752000 0.060989
5.753000 0.061232
5.754000 0.061643
5.755000 0.062165
5.756000 0.062727
5.757000 0.063271
5.758000 0.063737
5.759000 0.064108
5.760000 0.064386
5.761000 0.064578
5.762000 0.064695
5.763000 0.064744
5.764000 0.064732
5.765000 0.064769
5.766000 0.064861
5.767000 0.065001
5.768000 0.065183
5.769000 0.065400
5.770000 0.065636
5.771000 0.065880
5.772000 0.066119
5.773000 0.066343
5.774000 0.066548
5.775000 0.066736
5.776000 0.066913
5.777000 0.067088
5.778000 0.067267
5.779000 0.067442
5.780000 0.067594
5.781000 0.067696
5.782000 0.067735
5.783000 0.067704
5.784000 0.067685
5.785000 0.067701
5.786000 0.067726
5.787000 0.067742
5.788000 0.067736
5.789000 0.067702
5.790000 0.067635
5.791000 0.067545
5.792000 0.067495
5.793000 0.067493
5.794000 0.067541
5.795000 0.067631
5.796000 0.067746
5.797000 0.067865
5.798000 0.067971
5.799000 0.068049
5.800000 0.068085
5.801000 0.068063
5.802000 0.067965
5.803000 0.067994
5.804000 0.068184
5.805000 0.068506
5.806000 0.068818
5.807000 0.069059
5.808000 0.069185
5.809000 0.069185
5.810000 0.069080
5.811000 0.068903
5.812000 0.068689
5.813000 0.068462
5.814000 0.068235
5.815000 0.068064
5.816000 0.067979
5.817000 0.067969
5.818000 0.068018
5.819000 0.068110
5.820000 0.068226
5.821000 0.068302
5.822000 0.068339
5.823000 0.068347
5.824000 0.068334
5.825000 0.068311
5.826000 0.068284
5.827000 0.068249
5.828000 0.068198
5.829000 0.068120
5.830000 0.068006
5.831000 0.067852
5.832000 0.067669
5.833000 0.067470
5.834000 0.067268
5.835000 0.067071
5.836000 0.066884
5.837000 0.066704
5.838000 0.066526
5.839000 0.066345
5.840000 0.066223
5.841000 0.066191
5.842000 0.066255
5.843000 0.066322
5.844000 0.066310
5.845000 0.066218
5.846000 0.066062
5.847000 0.065862
5.848000 0.065643
5.849000 0.065483
5.850000 0.065398
5.851000 0.065394
5.852000 0.065472
5.853000 0.065536
5.854000 0.065560
5.855000 0.065553
5.856000 0.065528
5.857000 0.065498
5.858000 0.065475
5.859000 0.065463
5.860000 0.065466
5.861000 0.065485
5.862000 0.065447
5.863000 0.065392
5.864000 0.065319
5.865000 0.065229
5.866000 0.065127
5.867000 0.065019
5.868000 0.064909
5.869000 0.064796
5.870000 0.064683
5.871000 0.064576
5.872000 0.064477
5.873000 0.064417
5.874000 0.064421
5.875000 0.064477
5.876000 0.064566
5.877000 0.064676
5.878000 0.064797
5.879000 0.064927
5.880000 0.065063
5.881000 0.065199
5.882000 0.065319
5.883000 0.065400
5.884000 0.065417
5.885000 0.065349
5.886000 0.065389
5.887000 0.065549
5.888000 0.065811
5.889000 0.066080
5.890000 0.066321
5.891000 0.066509
5.892000 0.066631
5.893000 0.066686
5.894000 0.066671
5.895000 0.066586
5.896000 0.066433
5.897000 0.066215
5.898000 0.065946
5.899000 0.065658
5.900000 0.065407
5.901000 0.065223
5.902000 0.065139
5.903000 0.065176
5.904000 0.065136
5.905000 0.064988
5.906000 0.064752
5.907000 0.064460
5.908000 0.064146
5.909000 0.063843
5.910000 0.063569
5.911000 0.063340
5.912000 0.063169
5.913000 0.063063
5.914000 0.063026
5.915000 0.063057
5.916000 0.063101
5.917000 0.063109
5.918000 0.063092
5.919000 0.063063
5.920000 0.063029
5.921000 0.062987
5.922000 0.062920
5.923000 0.062808
5.924000 0.062624
5.925000 0.062413
5.926000 0.062269
5.927000 0.062200
5.928000 0.062211
5.929000 0.062312
5.930000 0.062515
5.931000 0.062765
5.932000 0.062841
5.933000 0.062745
5.934000 0.062504
5.935000 0.062158
5.936000 0.061754
5.937000 0.061328
5.938000 0.060912
5.939000 0.060533
5.940000 0.060205
5.941000 0.059937
5.942000 0.059734
5.943000 0.059609
5.944000 0.059557
5.945000 0.059569
5.946000 0.059544
5.947000 0.059473
5.948000 0.059363
5.949000 0.059222
5.950000 0.059055
5.951000 0.058871
5.952000 0.058671
5.953000 0.058457
5.954000 0.058229
5.955000 0.057991
5.956000 0.057755
5.957000 0.057521
5.958000 0.057285
5.959000 0.057043
5.960000 0.056790
5.961000 0.056528
5.962000 0.056260
5.963000 0.055996
5.964000 0.055750
5.965000 0.055536
5.966000 0.055363
5.967000 0.055237
5.968000 0.055171
5.969000 0.055177
5.970000 0.055112
5.971000 0.054953
5.972000 0.054711
5.973000 0.054407
5.974000 0.054069
5.975000 0.053731
5.976000 0.053416
5.977000 0.053139
5.978000 0.052905
5.979000 0.052713
5.980000 0.052566
5.981000 0.052464
5.982000 0.052411
5.983000 0.052409
5.984000 0.052409
5.985000 0.052351
5.986000 0.052235
5.987000 0.052063
5.988000 0.051839
5.989000 0.051567
5.990000 0.051256
5.991000 0.050916
5.992000 0.050572
5.993000 0.050260
5.994000 0.050022
5.995000 0.049904
5.996000 0.049880
5.997000 0.049703
5.998000 0.049392
5.999000 0.048990
6.000000 0.048547
6.001000 0.048112
6.002000 0.047720
6.003000 0.047393
6.004000 0.047140
6.005000 0.046966
6.006000 0.046871
6.007000 0.046855
6.008000 0.046819
6.009000 0.046708
6.010000 0.046526
6.011000 0.046282
6.012000 0.045988
6.013000 0.045657
6.014000 0.045302
6.015000 0.044941
6.016000 0.044589
6.017000 0.044267
6.018000 0.043993
6.019000 0.043787
6.020000 0.043667
6.021000 0.043648
6.022000 0.043577
6.023000 0.043418
6.024000 0.043197
6.025000 0.042940
6.026000 0.042675
6.027000 0.042427
6.028000 0.042213
6.029000 0.042047
6.030000 0.041938
6.031000 0.041893
6.032000 0.041894
6.033000 0.041816
6.034000 0.041672
6.035000 0.041476
6.036000 0.041238
6.037000 0.040968
6.038000 0.040681
6.039000 0.040392
6.040000 0.040126
6.041000 0.039898
6.042000 0.039722
6.043000 0.039608
6.044000 0.039556
6.045000 0.039556
6.046000 0.039537
6.047000 0.039485
6.048000 0.039413
6.049000 0.039322
6.050000 0.039213
6.051000 0.039096
6.052000 0.038986
6.053000 0.038904
6.054000 0.038868
6.055000 0.038879
6.056000 0.038891
6.057000 0.038912
6.058000 0.038887
6.059000 0.038795
6.060000 0.038634
6.061000 0.038428
6.062000 0.038230
6.063000 0.038075
6.064000 0.037985
6.065000 0.037969
6.066000 0.037978
6.067000 0.037925
6.068000 0.037831
6.069000 0.037718
6.070000 0.037603
6.071000 0.037494
6.072000 0.037388
6.073000 0.037276
6.074000 0.037147
6.075000 0.036998
6.076000 0.036834
6.077000 0.036661
6.078000 0.036489
6.079000 0.036325
6.080000 0.036180
6.081000 0.036064
6.082000 0.035990
6.083000 0.035969
6.084000 0.035978
6.085000 0.035927
6.086000 0.035820
6.087000 0.035661
6.088000 0.035461
6.089000 0.035232
6.090000 0.034989
6.091000 0.034745
6.092000 0.034516
6.093000 0.034315
6.094000 0.034151
6.095000 0.034030
6.096000 0.033952
6.097000 0.033914
6.098000 0.033913
6.099000 0.033933
6.100000 0.033918
6.101000 0.033870
6.102000 0.033794
6.103000 0.033694
6.104000 0.033576
6.105000 0.033448
6.106000 0.033320
6.107000 0.033201
6.108000 0.033100
6.109000 0.033019
6.110000 0.032954
6.111000 0.032897
6.112000 0.032835
6.113000 0.032757
6.114000 0.032655
6.115000 0.032530
6.116000 0.032392
6.117000 0.032258
6.118000 0.032151
6.119000 0.032086
6.120000 0.032066
6.121000 0.032081
6.122000 0.032094
6.123000 0.032104
6.124000 0.032120
6.125000 0.032141
6.126000 0.032156
6.127000 0.032163
6.128000 0.032157
6.129000 0.032134
6.130000 0.032089
6.131000 0.032023
6.132000 0.031936
6.133000 0.031832
6.134000 0.031724
6.135000 0.031628
6.136000 0.031558
6.137000 0.031522
6.138000 0.031525
6.139000 0.031526
6.140000 0.031481
6.141000 0.031388
6.142000 0.031242
6.143000 0.031043
6.144000 0.030794
6.145000 0.030508
6.146000 0.030200
6.147000 0.029886
6.148000 0.029577
6.149000 0.029298
6.150000 0.029092
6.151000 0.029017
6.152000 0.028962
6.153000 0.028715
6.154000 0.028299
6.155000 0.027775
6.156000 0.027216
6.157000 0.026686
6.158000 0.026225
6.159000 0.025849
6.160000 0.025562
6.161000 0.025358
6.162000 0.025233
6.163000 0.025179
6.164000 0.025190
6.165000 0.025154
6.166000 0.025067
6.167000 0.024935
6.168000 0.024767
6.169000 0.024567
6.170000 0.024343
6.171000 0.024106
6.172000 0.023869
6.173000 0.023643
6.174000 0.023435
6.175000 0.023241
6.176000 0.023055
6.177000 0.022867
6.178000 0.022672
6.179000 0.022477
6.180000 0.022302
6.181000 0.022171
6.182000 0.022099
6.183000 0.022090
6.184000 0.022063
6.185000 0.021994
6.186000 0.021908
6.187000 0.021825
6.188000 0.021757
6.189000 0.021711
6.190000 0.021691
6.191000 0.021688
6.192000 0.021641
6.193000 0.021540
6.194000 0.021387
6.195000 0.021189
6.196000 0.020964
6.197000 0.020733
6.198000 0.020514
6.199000 0.020324
6.200000 0.020178
6.201000 0.020093
6.202000 0.020093
6.203000 0.019987
6.204000 0.019756
6.205000 0.019418
6.206000 0.019011
6.207000 0.018585
6.208000 0.018193
6.209000 0.017863
6.210000 0.017607
6.211000 0.017420
6.212000 0.017295
6.213000 0.017229
6.214000 0.017216
6.215000 0.017201
6.216000 0.017151
6.217000 0.017071
6.218000 0.016970
6.219000 0.016861
6.220000 0.016756
6.221000 0.016661
6.222000 0.016577
6.223000 0.016500
6.224000 0.016423
6.225000 0.016339
6.226000 0.016243
6.227000 0.016139
6.228000 0.016037
6.229000 0.015950
6.230000 0.015890
6.231000 0.015861
6.232000 0.015855
6.233000 0.015859
6.234000 0.015860
6.235000 0.015851
6.236000 0.015832
6.237000 0.015807
6.238000 0.015786
6.239000 0.015783
6.240000 0.015755
6.241000 0.015689
6.242000 0.015595
6.243000 0.015489
6.244000 0.015387
6.245000 0.015305
6.246000 0.015248
6.247000 0.015222
6.248000 0.015225
6.249000 0.015206
6.250000 0.015165
6.251000 0.015107
6.252000 0.015033
6.253000 0.014944
6.254000 0.014841
6.255000 0.014725
6.256000 0.014597
6.257000 0.014459
6.258000 0.014317
6.259000 0.014195
6.260000 0.014125
6.261000 0.014115
6.262000 0.014141
6.263000 0.014119
6.264000 0.014055
6.265000 0.013957
6.266000 0.013838
6.267000 0.013710
6.268000 0.013586
6.269000 0.013478
6.270000 0.013398
6.271000 0.013355
6.272000 0.013352
6.273000 0.013357
6.274000 0.013338
6.275000 0.013296
6.276000 0.013227
6.277000 0.013128
6.278000 0.013000
6.279000 0.012844
6.280000 0.012664
6.281000 0.012470
6.282000 0.012283
6.283000 0.012126
6.284000 0.012026
6.285000 0.012031
6.286000 0.011960
6.287000 0.011807
6.288000 0.011592
6.289000 0.011346
6.290000 0.011098
6.291000 0.010873
6.292000 0.010684
6.293000 0.010532
6.294000 0.010417
6.295000 0.010334
6.296000 0.010280
6.297000 0.010250
6.298000 0.010240
6.299000 0.010236
6.300000 0.010214
6.301000 0.010179
6.302000 0.010132
6.303000 0.010076
6.304000 0.010025
6.305000 0.009984
6.306000 0.009958
6.307000 0.009950
6.308000 0.009959
6.309000 0.009980
6.310000 0.010008
6.311000 0.010038
6.312000 0.010063
6.313000 0.010081
6.314000 0.010088
6.315000 0.010085
6.316000 0.010070
6.317000 0.010043
6.318000 0.010000
6.319000 0.009940
6.320000 0.009864
6.321000 0.009779
6.322000 0.009701
6.323000 0.009650
6.324000 0.009651
6.325000 0.009657
6.326000 0.009576
6.327000 0.009412
6.328000 0.009188
6.329000 0.008934
6.330000 0.008676
6.331000 0.008436
6.332000 0.008226
6.333000 0.008052
6.334000 0.007911
6.335000 0.007800
6.336000 0.007718
6.337000 0.007660
6.338000 0.007626
6.339000 0.007612
6.340000 0.007614
6.341000 0.007630
6.342000 0.007653
6.343000 0.007666
6.344000 0.007673
6.345000 0.007674
6.346000 0.007673
6.347000 0.007671
6.348000 0.007669
6.349000 0.007666
6.350000 0.007661
6.351000 0.007653
6.352000 0.007645
6.353000 0.007641
6.354000 0.007642
6.355000 0.007644
6.356000 0.007634
6.357000 0.007614
6.358000 0.007589
6.359000 0.007567
6.360000 0.007548
6.361000 0.007533
6.362000 0.007521
6.363000 0.007509
6.364000 0.007497
6.365000 0.007484
6.366000 0.007471
6.367000 0.007459
6.368000 0.007452
6.369000 0.007451
6.370000 0.007459
6.371000 0.007479
6.372000 0.007512
6.373000 0.007558
6.374000 0.007615
6.375000 0.007676
6.376000 0.007733
6.377000 0.007777
6.378000 0.007806
6.379000 0.007821
6.380000 0.007825
6.381000 0.007827
6.382000 0.007833
6.383000 0.007851
6.384000 0.007883
6.385000 0.007926
6.386000 0.007977
6.387000 0.008026
6.388000 0.008066
6.389000 0.008085
6.390000 0.008090
6.391000 0.008144
6.392000 0.008255
6.393000 0.008424
6.394000 0.008648
6.395000 0.008909
6.396000 0.009187
6.397000 0.009457
6.398000 0.009703
6.399000 0.009917
6.400000 0.010105
6.401000 0.010274
6.402000 0.010430
6.403000 0.010574
6.404000 0.010706
6.405000 0.010821
6.406000 0.010917
6.407000 0.010991
6.408000 0.011049
6.409000 0.011095
6.410000 0.011132
6.411000 0.011164
6.412000 0.011192
6.413000 0.011217
6.414000 0.011240
6.415000 0.011261
6.416000 0.011278
6.417000 0.011291
6.418000 0.011297
6.419000 0.011299
6.420000 0.011298
6.421000 0.011293
6.422000 0.011292
6.423000 0.011293
6.424000 0.011296
6.425000 0.011298
6.426000 0.011300
6.427000 0.011300
6.428000 0.011299
6.429000 0.011296
6.430000 0.011295
6.431000 0.011297
6.432000 0.011306
6.433000 0.011322
6.434000 0.011338
6.435000 0.011351
6.436000 0.011362
6.437000 0.011375
6.438000 0.011389
6.439000 0.011405
6.440000 0.011416
6.441000 0.011422
6.442000 0.011424
6.443000 0.011423
6.444000 0.011420
6.445000 0.011418
6.446000 0.011418
6.447000 0.011424
6.448000 0.011427
6.449000 0.011423
6.450000 0.011413
6.451000 0.011399
6.452000 0.011380
6.453000 0.011359
6.454000 0.011337
6.455000 0.011315
6.456000 0.011296
6.457000 0.011278
6.458000 0.011261
6.459000 0.011246
6.460000 0.011235
6.461000 0.011238
6.462000 0.011237
6.463000 0.011227
6.464000 0.011211
6.465000 0.011191
6.466000 0.011172
6.467000 0.011160
6.468000 0.011156
6.469000 0.011161
6.470000 0.011175
6.471000 0.011195
6.472000 0.011217
6.473000 0.011236
6.474000 0.011252
6.475000 0.011265
6.476000 0.011276
6.477000 0.011285
6.478000 0.011296
6.479000 0.011310
6.480000 0.011328
6.481000 0.011351
6.482000 0.011380
6.483000 0.011416
6.484000 0.011460
6.485000 0.011512
6.486000 0.011572
6.487000 0.011638
6.488000 0.011710
6.489000 0.011787
6.490000 0.011868
6.491000 0.011952
6.492000 0.012039
6.493000 0.012125
6.494000 0.012206
6.495000 0.012281
6.496000 0.012351
6.497000 0.012416
6.498000 0.012478
6.499000 0.012532
6.500000 0.012565
6.501000 0.012559
6.502000 0.012555
6.503000 0.012606
6.504000 0.012711
6.505000 0.012857
6.506000 0.013026
6.507000 0.013196
6.508000 0.013349
6.509000 0.013475
6.510000 0.013569
6.511000 0.013632
6.512000 0.013671
6.513000 0.013696
6.514000 0.013720
6.515000 0.013754
6.516000 0.013803
6.517000 0.013865
6.518000 0.013933
6.519000 0.013996
6.520000 0.014045
6.521000 0.014076
6.522000 0.014086
6.523000 0.014078
6.524000 0.014055
6.525000 0.014041
6.526000 0.014040
6.527000 0.014051
6.528000 0.014072
6.529000 0.014103
6.530000 0.014141
6.531000 0.014186
6.532000 0.014237
6.533000 0.014294
6.534000 0.014358
6.535000 0.014429
6.536000 0.014509
6.537000 0.014598
6.538000 0.014696
6.539000 0.014805
6.540000 0.014922
6.541000 0.015048
6.542000 0.015182
6.543000 0.015322
6.544000 0.015467
6.545000 0.015616
6.546000 0.015765
6.547000 0.015910
6.548000 0.016046
6.549000 0.016166
6.550000 0.016259
6.551000 0.016315
6.552000 0.016325
6.553000 0.016315
6.554000 0.016352
6.555000 0.016429
6.556000 0.016532
6.557000 0.016647
6.558000 0.016760
6.559000 0.016864
6.560000 0.016956
6.561000 0.017036
6.562000 0.017105
6.563000 0.017163
6.564000 0.017206
6.565000 0.017232
6.566000 0.017236
6.567000 0.017226
6.568000 0.017244
6.569000 0.017292
6.570000 0.017374
6.571000 0.017488
6.572000 0.017634
6.573000 0.017812
6.574000 0.018019
6.575000 0.018254
6.576000 0.018517
6.577000 0.018805
6.578000 0.019117
6.579000 0.019445
6.580000 0.019778
6.581000 0.020101
6.582000 0.020403
6.583000 0.020672
6.584000 0.020892
6.585000 0.021049
6.586000 0.021133
6.587000 0.021137
6.588000 0.021203
6.589000 0.021345
6.590000 0.021544
6.591000 0.021774
6.592000 0.022010
6.593000 0.022228
6.594000 0.022409
6.595000 0.022532
6.596000 0.022588
6.597000 0.022584
6.598000 0.022659
6.599000 0.022810
6.600000 0.023032
6.601000 0.023308
6.602000 0.023625
6.603000 0.023966
6.604000 0.024320
6.605000 0.024670
6.606000 0.024996
6.607000 0.025277
6.608000 0.025480
6.609000 0.025560
6.610000 0.025639
6.611000 0.025899
6.612000 0.026338
6.613000 0.026929
6.614000 0.027627
6.615000 0.028379
6.616000 0.029141
6.617000 0.029876
6.618000 0.030557
6.619000 0.031163
6.620000 0.031683
6.621000 0.032110
6.622000 0.032446
6.623000 0.032694
6.624000 0.032860
6.625000 0.032945
6.626000 0.032954
6.627000 0.032969
6.628000 0.033048
6.629000 0.033189
6.630000 0.033389
6.631000 0.033639
6.632000 0.033931
6.633000 0.034249
6.634000 0.034577
6.635000 0.034899
6.636000 0.035207
6.637000 0.035498
6.638000 0.035776
6.639000 0.036044
6.640000 0.036299
6.641000 0.036528
6.642000 0.036710
6.643000 0.036820
6.644000 0.036840
6.645000 0.036909
6.646000 0.037063
6.647000 0.037279
6.648000 0.037529
6.649000 0.037781
6.650000 0.038010
6.651000 0.038196
6.652000 0.038324
6.653000 0.038387
6.654000 0.038388
6.655000 0.038387
6.656000 0.038430
6.657000 0.038514
6.658000 0.038640
6.659000 0.038797
6.660000 0.038973
6.661000 0.039174
6.662000 0.039401
6.663000 0.039653
6.664000 0.039920
6.665000 0.040182
6.666000 0.040411
6.667000 0.040568
6.668000 0.040618
6.669000 0.040689
6.670000 0.040897
6.671000 0.041209
6.672000 0.041590
6.673000 0.041996
6.674000 0.042396
6.675000 0.042771
6.676000 0.043117
6.677000 0.043431
6.678000 0.043717
6.679000 0.043982
6.680000 0.044237
6.681000 0.044488
6.682000 0.044734
6.683000 0.044968
6.684000 0.045179
6.685000 0.045334
6.686000 0.045426
6.687000 0.045460
6.688000 0.045447
6.689000 0.045400
6.690000 0.045364
6.691000 0.045352
6.692000 0.045365
6.693000 0.045405
6.694000 0.045476
6.695000 0.045582
6.696000 0.045724
6.697000 0.045901
6.698000 0.046113
6.699000 0.046360
6.700000 0.046636
6.701000 0.046941
6.702000 0.047277
6.703000 0.047640
6.704000 0.048017
6.705000 0.048393
6.706000 0.048750
6.707000 0.049068
6.708000 0.049333
6.709000 0.049537
6.710000 0.049673
6.711000 0.049732
6.712000 0.049704
6.713000 0.049692
6.714000 0.049784
6.715000 0.049962
6.716000 0.050195
6.717000 0.050447
6.718000 0.050690
6.719000 0.050921
6.720000 0.051149
6.721000 0.051392
6.722000 0.051661
6.723000 0.051958
6.724000 0.052274
6.725000 0.052586
6.726000 0.052872
6.727000 0.053111
6.728000 0.053286
6.729000 0.053384
6.730000 0.053400
6.731000 0.053377
6.732000 0.053417
6.733000 0.053497
6.734000 0.053594
6.735000 0.053686
6.736000 0.053755
6.737000 0.053788
6.738000 0.053770
6.739000 0.053807
6.740000 0.053924
6.741000 0.054119
6.742000 0.054376
6.743000 0.054662
6.744000 0.054934
6.745000 0.055164
6.746000 0.055339
6.747000 0.055459
6.748000 0.055530
6.749000 0.055560
6.750000 0.055558
6.751000 0.055562
6.752000 0.055584
6.753000 0.055618
6.754000 0.055664
6.755000 0.055727
6.756000 0.055811
6.757000 0.055922
6.758000 0.056057
6.759000 0.056214
6.760000 0.056388
6.761000 0.056577
6.762000 0.056775
6.763000 0.056979
6.764000 0.057190
6.765000 0.057411
6.766000 0.057649
6.767000 0.057904
6.768000 0.058172
6.769000 0.058438
6.770000 0.058686
6.771000 0.058900
6.772000 0.059071
6.773000 0.059193
6.774000 0.059262
6.775000 0.059275
6.776000 0.059226
6.777000 0.059232
6.778000 0.059329
6.779000 0.059506
6.780000 0.059742
6.781000 0.060011
6.782000 0.060288
6.783000 0.060553
6.784000 0.060789
6.785000 0.060983
6.786000 0.061128
6.787000 0.061223
6.788000 0.061268
6.789000 0.061267
6.790000 0.061306
6.791000 0.061372
6.792000 0.061445
6.793000 0.061509
6.794000 0.061545
6.795000 0.061543
6.796000 0.061500
6.797000 0.061429
6.798000 0.061343
6.799000 0.061248
6.800000 0.061139
6.801000 0.061002
6.802000 0.060845
6.803000 0.060752
6.804000 0.060712
6.805000 0.060713
6.806000 0.060741
6.807000 0.060785
6.808000 0.060836
6.809000 0.060891
6.810000 0.060945
6.811000 0.060986
6.812000 0.060996
6.813000 0.060963
6.814000 0.060977
6.815000 0.061029
6.816000 0.061094
6.817000 0.061140
6.818000 0.061141
6.819000 0.061175
6.820000 0.061273
6.821000 0.061403
6.822000 0.061522
6.823000 0.061603
6.824000 0.061635
6.825000 0.061620
6.826000 0.061632
6.827000 0.061651
6.828000 0.061661
6.829000 0.061651
6.830000 0.061641
6.831000 0.061637
6.832000 0.061618
6.833000 0.061634
6.834000 0.061698
6.835000 0.061815
6.836000 0.061985
6.837000 0.062208
6.838000 0.062486
6.839000 0.062818
6.840000 0.063195
6.841000 0.063589
6.842000 0.063960
6.843000 0.064276
6.844000 0.064514
6.845000 0.064674
6.846000 0.064767
6.847000 0.064814
6.848000 0.064831
6.849000 0.064833
6.850000 0.064829
6.851000 0.064829
6.852000 0.064843
6.853000 0.064867
6.854000 0.064877
6.855000 0.064906
6.856000 0.065000
6.857000 0.065169
6.858000 0.065403
6.859000 0.065670
6.860000 0.065925
6.861000 0.066118
6.862000 0.066218
6.863000 0.066211
6.864000 0.066296
6.865000 0.066464
