0.200000 0.058788
0.201000 0.058781
0.202000 0.058811
0.203000 0.058848
0.204000 0.058869
0.205000 0.058878
0.206000 0.058915
0.207000 0.058967
0.208000 0.059025
0.209000 0.059082
0.210000 0.059140
0.211000 0.059200
0.212000 0.059260
0.213000 0.059317
0.214000 0.059368
0.215000 0.059407
0.216000 0.059427
0.217000 0.059421
0.218000 0.059391
0.219000 0.059397
0.220000 0.059444
0.221000 0.059497
0.222000 0.059545
0.223000 0.059591
0.224000 0.059625
0.225000 0.059637
0.226000 0.059612
0.227000 0.059543
0.228000 0.059478
0.229000 0.059476
0.230000 0.059547
0.231000 0.059682
0.232000 0.059860
0.233000 0.060054
0.234000 0.060246
0.235000 0.060428
0.236000 0.060602
0.237000 0.060776
0.238000 0.060960
0.239000 0.061165
0.240000 0.061400
0.241000 0.061657
0.242000 0.061925
0.243000 0.062198
0.244000 0.062468
0.245000 0.062726
0.246000 0.062968
0.247000 0.063187
0.248000 0.063347
0.249000 0.063441
0.250000 0.063467
0.251000 0.063430
0.252000 0.063347
0.253000 0.063243
0.254000 0.063142
0.255000 0.063066
0.256000 0.063027
0.257000 0.063026
0.258000 0.062990
0.259000 0.062928
0.260000 0.062871
0.261000 0.062850
0.262000 0.062882
0.263000 0.062911
0.264000 0.062928
0.265000 0.062945
0.266000 0.062970
0.267000 0.063015
0.268000 0.063070
0.269000 0.063073
0.270000 0.063030
0.271000 0.062994
0.272000 0.063006
0.273000 0.063060
0.274000 0.063134
0.275000 0.063204
0.276000 0.063250
0.277000 0.063263
0.278000 0.063253
0.279000 0.063246
0.280000 0.063272
0.281000 0.063359
0.282000 0.063518
0.283000 0.063733
0.284000 0.063923
0.285000 0.064103
0.286000 0.064279
0.287000 0.064460
0.288000 0.064646
0.289000 0.064835
0.290000 0.065019
0.291000 0.065210
0.292000 0.065411
0.293000 0.065618
0.294000 0.065733
0.295000 0.065708
0.296000 0.065625
0.297000 0.065613
0.298000 0.065651
0.299000 0.065697
0.300000 0.065706
0.301000 0.065638
0.302000 0.065474
0.303000 0.065219
0.304000 0.064901
0.305000 0.064562
0.306000 0.064249
0.307000 0.063989
0.308000 0.063784
0.309000 0.063610
0.310000 0.063563
0.311000 0.063677
0.312000 0.063714
0.313000 0.063648
0.314000 0.063495
0.315000 0.063316
0.316000 0.063188
0.317000 0.063148
0.318000 0.063179
0.319000 0.063218
0.320000 0.063197
0.321000 0.063085
0.322000 0.062908
0.323000 0.062714
0.324000 0.062528
0.325000 0.062502
0.326000 0.062619
0.327000 0.062791
0.328000 0.062911
0.329000 0.062942
0.330000 0.062863
0.331000 0.062746
0.332000 0.062715
0.333000 0.062712
0.334000 0.062627
0.335000 0.062353
0.336000 0.062113
0.337000 0.061872
0.338000 0.061578
0.339000 0.061227
0.340000 0.060854
0.341000 0.060525
0.342000 0.060535
0.343000 0.060547
0.344000 0.060319
0.345000 0.059838
0.346000 0.059107
0.347000 0.058400
0.348000 0.057923
0.349000 0.057688
0.350000 0.057660
0.351000 0.057795
0.352000 0.058052
0.353000 0.058393
0.354000 0.058769
0.355000 0.059138
0.356000 0.059503
0.357000 0.059903
0.358000 0.060386
0.359000 0.060966
0.360000 0.061607
0.361000 0.062254
0.362000 0.062872
0.363000 0.063454
0.364000 0.063906
0.365000 0.064193
0.366000 0.064309
0.367000 0.064265
0.368000 0.064109
0.369000 0.063920
0.370000 0.063783
0.371000 0.063744
0.372000 0.063785
0.373000 0.063838
0.374000 0.063842
0.375000 0.063788
0.376000 0.063719
0.377000 0.063710
0.378000 0.063829
0.379000 0.064119
0.380000 0.064412
0.381000 0.064715
0.382000 0.065049
0.383000 0.065374
0.384000 0.065628
0.385000 0.065774
0.386000 0.065804
0.387000 0.065730
0.388000 0.065561
0.389000 0.065311
0.390000 0.065003
0.391000 0.064659
0.392000 0.064299
0.393000 0.064101
0.394000 0.064125
0.395000 0.064298
0.396000 0.064550
0.397000 0.064843
0.398000 0.065192
0.399000 0.065643
0.400000 0.066122
0.401000 0.066598
0.402000 0.067149
0.403000 0.067731
0.404000 0.068123
0.405000 0.068284
0.406000 0.068239
0.407000 0.068058
0.408000 0.067824
0.409000 0.067593
0.410000 0.067388
0.411000 0.067197
0.412000 0.067038
0.413000 0.066951
0.414000 0.066983
0.415000 0.067150
0.416000 0.067422
0.417000 0.067738
0.418000 0.068040
0.419000 0.068307
0.420000 0.068527
0.421000 0.068699
0.422000 0.068856
0.423000 0.068995
0.424000 0.069088
0.425000 0.069107
0.426000 0.069033
0.427000 0.068872
0.428000 0.068717
0.429000 0.068563
0.430000 0.068435
0.431000 0.068389
0.432000 0.068410
0.433000 0.068469
0.434000 0.068539
0.435000 0.068613
0.436000 0.068693
0.437000 0.068777
0.438000 0.068858
0.439000 0.068924
0.440000 0.068964
0.441000 0.068977
0.442000 0.068965
0.443000 0.068933
0.444000 0.068889
0.445000 0.068873
0.446000 0.068879
0.447000 0.068901
0.448000 0.068939
0.449000 0.068990
0.450000 0.069054
0.451000 0.069133
0.452000 0.069225
0.453000 0.069328
0.454000 0.069442
0.455000 0.069562
0.456000 0.069682
0.457000 0.069790
0.458000 0.069887
0.459000 0.069979
0.460000 0.070069
0.461000 0.070155
0.462000 0.070237
0.463000 0.070309
0.464000 0.070362
0.465000 0.070391
0.466000 0.070392
0.467000 0.070366
0.468000 0.070322
0.469000 0.070273
0.470000 0.070236
0.471000 0.070224
0.472000 0.070244
0.473000 0.070292
0.474000 0.070360
0.475000 0.070437
0.476000 0.070513
0.477000 0.070585
0.478000 0.070650
0.479000 0.070687
0.480000 0.070700
0.481000 0.070696
0.482000 0.070681
0.483000 0.070660
0.484000 0.070640
0.485000 0.070629
0.486000 0.070629
0.487000 0.070643
0.488000 0.070672
0.489000 0.070712
0.490000 0.070751
0.491000 0.070768
0.492000 0.070761
0.493000 0.070724
0.494000 0.070662
0.495000 0.070598
0.496000 0.070532
0.497000 0.070460
0.498000 0.070381
0.499000 0.070293
0.500000 0.070204
0.501000 0.070130
0.502000 0.070072
0.503000 0.070032
0.504000 0.070012
0.505000 0.070013
0.506000 0.070033
0.507000 0.070068
0.508000 0.070109
0.509000 0.070150
0.510000 0.070185
0.511000 0.070215
0.512000 0.070242
0.513000 0.070265
0.514000 0.070282
0.515000 0.070302
0.516000 0.070333
0.517000 0.070362
0.518000 0.070364
0.519000 0.070353
0.520000 0.070344
0.521000 0.070348
0.522000 0.070370
0.523000 0.070407
0.524000 0.070453
0.525000 0.070509
0.526000 0.070566
0.527000 0.070618
0.528000 0.070663
0.529000 0.070701
0.530000 0.070739
0.531000 0.070785
0.532000 0.070852
0.533000 0.070938
0.534000 0.070990
0.535000 0.071014
0.536000 0.071011
0.537000 0.070982
0.538000 0.070926
0.539000 0.070846
0.540000 0.070743
0.541000 0.070623
0.542000 0.070527
0.543000 0.070464
0.544000 0.070438
0.545000 0.070449
0.546000 0.070467
0.547000 0.070448
0.548000 0.070396
0.549000 0.070317
0.550000 0.070215
0.551000 0.070099
0.552000 0.069970
0.553000 0.069829
0.554000 0.069670
0.555000 0.069491
0.556000 0.069290
0.557000 0.069068
0.558000 0.068828
0.559000 0.068576
0.560000 0.068325
0.561000 0.068097
0.562000 0.067909
0.563000 0.067779
0.564000 0.067717
0.565000 0.067728
0.566000 0.067809
0.567000 0.067905
0.568000 0.067956
0.569000 0.067973
0.570000 0.067967
0.571000 0.067948
0.572000 0.067922
0.573000 0.067902
0.574000 0.067932
0.575000 0.067954
0.576000 0.067958
0.577000 0.067935
0.578000 0.067897
0.579000 0.067898
0.580000 0.067939
0.581000 0.068015
0.582000 0.068121
0.583000 0.068249
0.584000 0.068389
0.585000 0.068516
0.586000 0.068622
0.587000 0.068705
0.588000 0.068761
0.589000 0.068789
0.590000 0.068787
0.591000 0.068753
0.592000 0.068702
0.593000 0.068640
0.594000 0.068557
0.595000 0.068450
0.596000 0.068356
0.597000 0.068287
0.598000 0.068249
0.599000 0.068249
0.600000 0.068289
0.601000 0.068363
0.602000 0.068470
0.603000 0.068613
0.604000 0.068797
0.605000 0.068913
0.606000 0.068890
0.607000 0.068756
0.608000 0.068549
0.609000 0.068317
0.610000 0.068097
0.611000 0.067888
0.612000 0.067695
0.613000 0.067527
0.614000 0.067393
0.615000 0.067297
0.616000 0.067246
0.617000 0.067242
0.618000 0.067279
0.619000 0.067286
0.620000 0.067254
0.621000 0.067193
0.622000 0.067140
0.623000 0.067092
0.624000 0.067042
0.625000 0.066991
0.626000 0.066944
0.627000 0.066931
0.628000 0.066922
0.629000 0.066861
0.630000 0.066740
0.631000 0.066569
0.632000 0.066377
0.633000 0.066196
0.634000 0.066044
0.635000 0.065921
0.636000 0.065814
0.637000 0.065703
0.638000 0.065571
0.639000 0.065411
0.640000 0.065226
0.641000 0.065021
0.642000 0.064797
0.643000 0.064551
0.644000 0.064286
0.645000 0.064006
0.646000 0.063785
0.647000 0.063631
0.648000 0.063534
0.649000 0.063477
0.650000 0.063445
0.651000 0.063422
0.652000 0.063394
0.653000 0.063369
0.654000 0.063388
0.655000 0.063440
0.656000 0.063509
0.657000 0.063569
0.658000 0.063596
0.659000 0.063608
0.660000 0.063685
0.661000 0.063826
0.662000 0.064020
0.663000 0.064258
0.664000 0.064528
0.665000 0.064817
0.666000 0.065111
0.667000 0.065396
0.668000 0.065664
0.669000 0.065917
0.670000 0.066163
0.671000 0.066373
0.672000 0.066520
0.673000 0.066615
0.674000 0.066668
0.675000 0.066687
0.676000 0.066674
0.677000 0.066630
0.678000 0.066555
0.679000 0.066445
0.680000 0.066299
0.681000 0.066116
0.682000 0.065919
0.683000 0.065717
0.684000 0.065513
0.685000 0.065313
0.686000 0.065120
0.687000 0.064933
0.688000 0.064749
0.689000 0.064558
0.690000 0.064362
0.691000 0.064159
0.692000 0.063956
0.693000 0.063777
0.694000 0.063654
0.695000 0.063628
0.696000 0.063628
0.697000 0.063537
0.698000 0.063388
0.699000 0.063226
0.700000 0.063094
0.701000 0.063018
0.702000 0.063003
0.703000 0.063035
0.704000 0.063084
0.705000 0.063125
0.706000 0.063141
0.707000 0.063127
0.708000 0.063095
0.709000 0.063084
0.710000 0.063077
0.711000 0.063005
0.712000 0.062855
0.713000 0.062631
0.714000 0.062335
0.715000 0.061959
0.716000 0.061491
0.717000 0.060939
0.718000 0.060349
0.719000 0.059793
0.720000 0.059338
0.721000 0.059042
0.722000 0.058898
0.723000 0.058861
0.724000 0.058904
0.725000 0.058863
0.726000 0.058740
0.727000 0.058569
0.728000 0.058399
0.729000 0.058277
0.730000 0.058230
0.731000 0.058202
0.732000 0.058076
0.733000 0.057909
0.734000 0.057791
0.735000 0.057798
0.736000 0.057671
0.737000 0.057458
0.738000 0.057252
0.739000 0.057123
0.740000 0.057121
0.741000 0.057273
0.742000 0.057355
0.743000 0.057336
0.744000 0.057254
0.745000 0.057181
0.746000 0.057192
0.747000 0.057108
0.748000 0.056828
0.749000 0.056439
0.750000 0.055982
0.751000 0.055485
0.752000 0.054956
0.753000 0.054406
0.754000 0.053870
0.755000 0.053385
0.756000 0.052953
0.757000 0.052526
0.758000 0.052023
0.759000 0.051397
0.760000 0.050796
0.761000 0.050297
0.762000 0.049970
0.763000 0.049848
0.764000 0.049933
0.765000 0.050228
0.766000 0.050742
0.767000 0.051475
0.768000 0.052381
0.769000 0.053367
0.770000 0.054306
0.771000 0.055088
0.772000 0.055658
0.773000 0.056020
0.774000 0.056211
0.775000 0.056284
0.776000 0.056266
0.777000 0.056132
0.778000 0.055839
0.779000 0.055844
0.780000 0.056079
0.781000 0.056416
0.782000 0.056736
0.783000 0.056977
0.784000 0.057118
0.785000 0.057156
0.786000 0.057080
0.787000 0.056879
0.788000 0.056544
0.789000 0.056072
0.790000 0.055962
0.791000 0.056234
0.792000 0.056809
0.793000 0.057417
0.794000 0.057879
0.795000 0.058138
0.796000 0.058174
0.797000 0.058000
0.798000 0.057655
0.799000 0.057175
0.800000 0.056724
0.801000 0.056306
0.802000 0.055927
0.803000 0.055578
0.804000 0.055264
0.805000 0.055020
0.806000 0.054909
0.807000 0.054991
0.808000 0.055298
0.809000 0.055793
0.810000 0.056379
0.811000 0.056947
0.812000 0.057375
0.813000 0.057579
0.814000 0.057555
0.815000 0.057394
0.816000 0.057244
0.817000 0.057265
0.818000 0.057537
0.819000 0.058025
0.820000 0.058612
0.821000 0.059178
0.822000 0.059660
0.823000 0.060074
0.824000 0.060486
0.825000 0.060957
0.826000 0.061500
0.827000 0.062060
0.828000 0.062478
0.829000 0.062712
0.830000 0.062750
0.831000 0.062680
0.832000 0.062586
0.833000 0.062449
0.834000 0.062298
0.835000 0.062187
0.836000 0.062152
0.837000 0.062161
0.838000 0.062130
0.839000 0.062035
0.840000 0.062206
0.841000 0.062673
0.842000 0.063379
0.843000 0.064235
0.844000 0.065140
0.845000 0.065990
0.846000 0.066769
0.847000 0.067496
0.848000 0.068171
0.849000 0.068769
0.850000 0.069260
0.851000 0.069632
0.852000 0.069900
0.853000 0.070096
0.854000 0.070254
0.855000 0.070392
0.856000 0.070515
0.857000 0.070617
0.858000 0.070681
0.859000 0.070693
0.860000 0.070646
0.861000 0.070555
0.862000 0.070507
0.863000 0.070483
0.864000 0.070472
0.865000 0.070473
0.866000 0.070492
0.867000 0.070533
0.868000 0.070595
0.869000 0.070673
0.870000 0.070761
0.871000 0.070848
0.872000 0.070930
0.873000 0.071007
0.874000 0.071083
0.875000 0.071167
0.876000 0.071268
0.877000 0.071393
0.878000 0.071544
0.879000 0.071724
0.880000 0.071928
0.881000 0.072149
0.882000 0.072375
0.883000 0.072594
0.884000 0.072800
0.885000 0.072989
0.886000 0.073161
0.887000 0.073319
0.888000 0.073469
0.889000 0.073618
0.890000 0.073767
0.891000 0.073917
0.892000 0.074066
0.893000 0.074215
0.894000 0.074357
0.895000 0.074475
0.896000 0.074574
0.897000 0.074662
0.898000 0.074747
0.899000 0.074831
0.900000 0.074909
0.901000 0.074965
0.902000 0.074999
0.903000 0.075012
0.904000 0.075004
0.905000 0.074978
0.906000 0.074931
0.907000 0.074870
0.908000 0.074806
0.909000 0.074732
0.910000 0.074647
0.911000 0.074550
0.912000 0.074446
0.913000 0.074353
0.914000 0.074285
0.915000 0.074244
0.916000 0.074227
0.917000 0.074226
0.918000 0.074235
0.919000 0.074246
0.920000 0.074253
0.921000 0.074250
0.922000 0.074232
0.923000 0.074200
0.924000 0.074155
0.925000 0.074107
0.926000 0.074051
0.927000 0.073981
0.928000 0.073895
0.929000 0.073819
0.930000 0.073756
0.931000 0.073705
0.932000 0.073662
0.933000 0.073621
0.934000 0.073578
0.935000 0.073530
0.936000 0.073480
0.937000 0.073436
0.938000 0.073405
0.939000 0.073398
0.940000 0.073423
0.941000 0.073478
0.942000 0.073529
0.943000 0.073574
0.944000 0.073616
0.945000 0.073657
0.946000 0.073698
0.947000 0.073735
0.948000 0.073766
0.949000 0.073791
0.950000 0.073819
0.951000 0.073857
0.952000 0.073910
0.953000 0.073978
0.954000 0.074053
0.955000 0.074126
0.956000 0.074186
0.957000 0.074223
0.958000 0.074236
0.959000 0.074223
0.960000 0.074188
0.961000 0.074137
0.962000 0.074074
0.963000 0.074006
0.964000 0.073942
0.965000 0.073885
0.966000 0.073840
0.967000 0.073806
0.968000 0.073788
0.969000 0.073793
0.970000 0.073829
0.971000 0.073903
0.972000 0.074018
0.973000 0.074166
0.974000 0.074302
0.975000 0.074439
0.976000 0.074597
0.977000 0.074793
0.978000 0.075014
0.979000 0.075204
0.980000 0.075351
0.981000 0.075449
0.982000 0.075495
0.983000 0.075494
0.984000 0.075448
0.985000 0.075359
0.986000 0.075244
0.987000 0.075218
0.988000 0.075296
0.989000 0.075487
0.990000 0.075793
0.991000 0.076203
0.992000 0.076680
0.993000 0.077184
0.994000 0.077701
0.995000 0.078215
0.996000 0.078682
0.997000 0.079085
0.998000 0.079414
0.999000 0.079662
1.000000 0.079826
1.001000 0.079917
1.002000 0.079958
1.003000 0.079981
1.004000 0.080014
1.005000 0.080074
1.006000 0.080167
1.007000 0.080289
1.008000 0.080429
1.009000 0.080551
1.010000 0.080625
1.011000 0.080656
1.012000 0.080645
1.013000 0.080636
1.014000 0.080656
1.015000 0.080700
1.016000 0.080771
1.017000 0.080866
1.018000 0.080987
1.019000 0.081134
1.020000 0.081306
1.021000 0.081499
1.022000 0.081677
1.023000 0.081838
1.024000 0.081982
1.025000 0.082111
1.026000 0.082222
1.027000 0.082294
1.028000 0.082309
1.029000 0.082313
1.030000 0.082370
1.031000 0.082470
1.032000 0.082586
1.033000 0.082698
1.034000 0.082801
1.035000 0.082907
1.036000 0.083031
1.037000 0.083179
1.038000 0.083339
1.039000 0.083490
1.040000 0.083608
1.041000 0.083681
1.042000 0.083714
1.043000 0.083722
1.044000 0.083722
1.045000 0.083731
1.046000 0.083703
1.047000 0.083656
1.048000 0.083600
1.049000 0.083553
1.050000 0.083529
1.051000 0.083540
1.052000 0.083594
1.053000 0.083678
1.054000 0.083741
1.055000 0.083789
1.056000 0.083838
1.057000 0.083906
1.058000 0.084012
1.059000 0.084142
1.060000 0.084203
1.061000 0.084179
1.062000 0.084074
1.063000 0.083897
1.064000 0.083660
1.065000 0.083378
1.066000 0.083065
1.067000 0.082734
1.068000 0.082411
1.069000 0.082156
1.070000 0.081964
1.071000 0.081824
1.072000 0.081719
1.073000 0.081633
1.074000 0.081555
1.075000 0.081482
1.076000 0.081422
1.077000 0.081385
1.078000 0.081382
1.079000 0.081420
1.080000 0.081498
1.081000 0.081604
1.082000 0.081705
1.083000 0.081792
1.084000 0.081873
1.085000 0.081955
1.086000 0.082046
1.087000 0.082151
1.088000 0.082271
1.089000 0.082407
1.090000 0.082543
1.091000 0.082671
1.092000 0.082794
1.093000 0.082918
1.094000 0.083034
1.095000 0.083124
1.096000 0.083167
1.097000 0.083152
1.098000 0.083078
1.099000 0.082952
1.100000 0.082795
1.101000 0.082618
1.102000 0.082429
1.103000 0.082240
1.104000 0.082077
1.105000 0.081954
1.106000 0.081884
1.107000 0.081876
1.108000 0.081941
1.109000 0.082065
1.110000 0.082180
1.111000 0.082285
1.112000 0.082373
1.113000 0.082434
1.114000 0.082466
1.115000 0.082465
1.116000 0.082433
1.117000 0.082375
1.118000 0.082335
1.119000 0.082340
1.120000 0.082386
1.121000 0.082435
1.122000 0.082469
1.123000 0.082497
1.124000 0.082529
1.125000 0.082575
1.126000 0.082642
1.127000 0.082732
1.128000 0.082843
1.129000 0.082974
1.130000 0.083124
1.131000 0.083290
1.132000 0.083466
1.133000 0.083638
1.134000 0.083793
1.135000 0.083926
1.136000 0.084046
1.137000 0.084136
1.138000 0.084186
1.139000 0.084205
1.140000 0.084202
1.141000 0.084189
1.142000 0.084175
1.143000 0.084155
1.144000 0.084132
1.145000 0.084115
1.146000 0.084112
1.147000 0.084123
1.148000 0.084125
1.149000 0.084118
1.150000 0.084135
1.151000 0.084186
1.152000 0.084264
1.153000 0.084340
1.154000 0.084376
1.155000 0.084350
1.156000 0.084279
1.157000 0.084241
1.158000 0.084242
1.159000 0.084282
1.160000 0.084226
1.161000 0.084065
1.162000 0.083811
1.163000 0.083491
1.164000 0.083135
1.165000 0.082769
1.166000 0.082397
1.167000 0.081989
1.168000 0.081492
1.169000 0.080845
1.170000 0.080029
1.171000 0.079096
1.172000 0.078154
1.173000 0.077311
1.174000 0.076636
1.175000 0.076156
1.176000 0.075897
1.177000 0.075896
1.178000 0.076154
1.179000 0.076124
1.180000 0.075747
1.181000 0.075028
1.182000 0.074012
1.183000 0.073084
1.184000 0.072295
1.185000 0.071701
1.186000 0.071359
1.187000 0.071314
1.188000 0.071582
1.189000 0.072160
1.190000 0.072525
1.191000 0.072629
1.192000 0.072527
1.193000 0.072301
1.194000 0.072039
1.195000 0.071816
1.196000 0.071675
1.197000 0.071610
1.198000 0.071581
1.199000 0.071612
1.200000 0.071622
1.201000 0.071524
1.202000 0.071352
1.203000 0.071356
1.204000 0.071619
1.205000 0.072120
1.206000 0.072750
1.207000 0.073366
1.208000 0.073823
1.209000 0.074042
1.210000 0.074042
1.211000 0.073916
1.212000 0.073784
1.213000 0.073734
1.214000 0.073771
1.215000 0.073824
1.216000 0.073782
1.217000 0.073532
1.218000 0.073030
1.219000 0.072318
1.220000 0.071504
1.221000 0.070788
1.222000 0.070191
1.223000 0.069699
1.224000 0.069278
1.225000 0.068906
1.226000 0.068603
1.227000 0.068419
1.228000 0.068418
1.229000 0.068633
1.230000 0.069044
1.231000 0.069497
1.232000 0.069921
1.233000 0.070360
1.234000 0.070809
1.235000 0.071221
1.236000 0.071559
1.237000 0.071854
1.238000 0.072193
1.239000 0.072608
1.240000 0.072772
1.241000 0.072647
1.242000 0.072275
1.243000 0.071728
1.244000 0.071073
1.245000 0.070372
1.246000 0.069648
1.247000 0.068903
1.248000 0.068168
1.249000 0.067512
1.250000 0.066963
1.251000 0.066562
1.252000 0.066353
1.253000 0.066344
1.254000 0.066504
1.255000 0.066779
1.256000 0.067121
1.257000 0.067497
1.258000 0.067893
1.259000 0.068302
1.260000 0.068713
1.261000 0.069106
1.262000 0.069395
1.263000 0.069604
1.264000 0.069751
1.265000 0.069841
1.266000 0.069871
1.267000 0.069837
1.268000 0.069731
1.269000 0.069616
1.270000 0.069505
1.271000 0.069401
1.272000 0.069306
1.273000 0.069221
1.274000 0.069138
1.275000 0.069046
1.276000 0.068933
1.277000 0.068786
1.278000 0.068600
1.279000 0.068374
1.280000 0.068157
1.281000 0.067945
1.282000 0.067733
1.283000 0.067524
1.284000 0.067320
1.285000 0.067126
1.286000 0.066946
1.287000 0.066775
1.288000 0.066600
1.289000 0.066410
1.290000 0.066234
1.291000 0.066087
1.292000 0.065954
1.293000 0.065817
1.294000 0.065677
1.295000 0.065579
1.296000 0.065512
1.297000 0.065458
1.298000 0.065401
1.299000 0.065335
1.300000 0.065260
1.301000 0.065200
1.302000 0.065157
1.303000 0.065123
1.304000 0.065096
1.305000 0.065080
1.306000 0.065084
1.307000 0.065108
1.308000 0.065143
1.309000 0.065192
1.310000 0.065257
1.311000 0.065337
1.312000 0.065431
1.313000 0.065526
1.314000 0.065614
1.315000 0.065690
1.316000 0.065751
1.317000 0.065794
1.318000 0.065819
1.319000 0.065827
1.320000 0.065824
1.321000 0.065814
1.322000 0.065800
1.323000 0.065799
1.324000 0.065811
1.325000 0.065820
1.326000 0.065825
1.327000 0.065828
1.328000 0.065834
1.329000 0.065821
1.330000 0.065800
1.331000 0.065773
1.332000 0.065746
1.333000 0.065725
1.334000 0.065715
1.335000 0.065721
1.336000 0.065742
1.337000 0.065779
1.338000 0.065826
1.339000 0.065876
1.340000 0.065924
1.341000 0.065963
1.342000 0.065992
1.343000 0.066009
1.344000 0.066012
1.345000 0.066003
1.346000 0.065984
1.347000 0.065960
1.348000 0.065935
1.349000 0.065908
1.350000 0.065868
1.351000 0.065816
1.352000 0.065763
1.353000 0.065706
1.354000 0.065646
1.355000 0.065584
1.356000 0.065527
1.357000 0.065475
1.358000 0.065431
1.359000 0.065390
1.360000 0.065359
1.361000 0.065358
1.362000 0.065382
1.363000 0.065426
1.364000 0.065485
1.365000 0.065557
1.366000 0.065637
1.367000 0.065721
1.368000 0.065802
1.369000 0.065873
1.370000 0.065926
1.371000 0.065957
1.372000 0.065967
1.373000 0.065956
1.374000 0.065920
1.375000 0.065852
1.376000 0.065743
1.377000 0.065589
1.378000 0.065394
1.379000 0.065168
1.380000 0.064967
1.381000 0.064804
1.382000 0.064678
1.383000 0.064585
1.384000 0.064528
1.385000 0.064508
1.386000 0.064512
1.387000 0.064432
1.388000 0.064279
1.389000 0.064034
1.390000 0.063709
1.391000 0.063333
1.392000 0.062929
1.393000 0.062527
1.394000 0.062144
1.395000 0.061790
1.396000 0.061470
1.397000 0.061190
1.398000 0.060956
1.399000 0.060769
1.400000 0.060635
1.401000 0.060558
1.402000 0.060539
1.403000 0.060574
1.404000 0.060656
1.405000 0.060774
1.406000 0.060911
1.407000 0.061053
1.408000 0.061185
1.409000 0.061301
1.410000 0.061401
1.411000 0.061485
1.412000 0.061558
1.413000 0.061579
1.414000 0.061530
1.415000 0.061466
1.416000 0.061393
1.417000 0.061307
1.418000 0.061207
1.419000 0.061092
1.420000 0.060957
1.421000 0.060797
1.422000 0.060608
1.423000 0.060453
1.424000 0.060341
1.425000 0.060263
1.426000 0.060207
1.427000 0.060166
1.428000 0.060144
1.429000 0.060143
1.430000 0.060119
1.431000 0.060077
1.432000 0.060024
1.433000 0.059966
1.434000 0.059904
1.435000 0.059838
1.436000 0.059766
1.437000 0.059697
1.438000 0.059643
1.439000 0.059612
1.440000 0.059606
1.441000 0.059622
1.442000 0.059645
1.443000 0.059658
1.444000 0.059636
1.445000 0.059698
1.446000 0.059855
1.447000 0.060098
1.448000 0.060420
1.449000 0.060798
1.450000 0.061193
1.451000 0.061562
1.452000 0.061870
1.453000 0.062094
1.454000 0.062225
1.455000 0.062266
1.456000 0.062233
1.457000 0.062140
1.458000 0.061999
1.459000 0.061888
1.460000 0.061809
1.461000 0.061762
1.462000 0.061739
1.463000 0.061729
1.464000 0.061728
1.465000 0.061740
1.466000 0.061778
1.467000 0.061851
1.468000 0.061951
1.469000 0.062024
1.470000 0.062078
1.471000 0.062125
1.472000 0.062181
1.473000 0.062252
1.474000 0.062336
1.475000 0.062416
1.476000 0.062471
1.477000 0.062484
1.478000 0.062448
1.479000 0.062366
1.480000 0.062264
1.481000 0.062161
1.482000 0.062060
1.483000 0.061960
1.484000 0.061863
1.485000 0.061767
1.486000 0.061675
1.487000 0.061593
1.488000 0.061523
1.489000 0.061469
1.490000 0.061436
1.491000 0.061437
1.492000 0.061473
1.493000 0.061544
1.494000 0.061651
1.495000 0.061793
1.496000 0.061965
1.497000 0.062151
1.498000 0.062338
1.499000 0.062508
1.500000 0.062642
1.501000 0.062737
1.502000 0.062797
1.503000 0.062824
1.504000 0.062823
1.505000 0.062834
1.506000 0.062835
1.507000 0.062803
1.508000 0.062718
1.509000 0.062605
1.510000 0.062497
1.511000 0.062404
1.512000 0.062338
1.513000 0.062311
1.514000 0.062330
1.515000 0.062397
1.516000 0.062515
1.517000 0.062680
1.518000 0.062848
1.519000 0.062991
1.520000 0.063109
1.521000 0.063207
1.522000 0.063291
1.523000 0.063361
1.524000 0.063415
1.525000 0.063448
1.526000 0.063451
1.527000 0.063418
1.528000 0.063348
1.529000 0.063243
1.530000 0.063113
1.531000 0.062969
1.532000 0.062826
1.533000 0.062701
1.534000 0.062609
1.535000 0.062562
1.536000 0.062565
1.537000 0.062603
1.538000 0.062643
1.539000 0.062652
1.540000 0.062603
1.541000 0.062486
1.542000 0.062316
1.543000 0.062160
1.544000 0.062044
1.545000 0.061971
1.546000 0.061940
1.547000 0.061947
1.548000 0.061987
1.549000 0.062018
1.550000 0.062019
1.551000 0.061991
1.552000 0.061938
1.553000 0.061875
1.554000 0.061821
1.555000 0.061791
1.556000 0.061796
1.557000 0.061788
1.558000 0.061779
1.559000 0.061777
1.560000 0.061773
1.561000 0.061740
1.562000 0.061670
1.563000 0.061574
1.564000 0.061422
1.565000 0.061186
1.566000 0.060861
1.567000 0.060475
1.568000 0.060084
1.569000 0.059758
1.570000 0.059549
1.571000 0.059465
1.572000 0.059471
1.573000 0.059520
1.574000 0.059575
1.575000 0.059605
1.576000 0.059575
1.577000 0.059463
1.578000 0.059276
1.579000 0.059051
1.580000 0.058840
1.581000 0.058694
1.582000 0.058751
1.583000 0.058728
1.584000 0.058654
1.585000 0.058534
1.586000 0.058356
1.587000 0.058109
1.588000 0.057797
1.589000 0.057435
1.590000 0.057052
1.591000 0.056676
1.592000 0.056321
1.593000 0.055989
1.594000 0.055679
1.595000 0.055392
1.596000 0.055152
1.597000 0.055057
1.598000 0.055119
1.599000 0.055265
1.600000 0.055391
1.601000 0.055565
1.602000 0.055754
1.603000 0.055741
1.604000 0.055498
1.605000 0.055088
1.606000 0.054608
1.607000 0.054149
1.608000 0.053769
1.609000 0.053473
1.610000 0.053214
1.611000 0.052945
1.612000 0.052636
1.613000 0.052443
1.614000 0.052277
1.615000 0.052064
1.616000 0.051862
1.617000 0.051752
1.618000 0.051756
1.619000 0.051892
1.620000 0.052132
1.621000 0.052304
1.622000 0.052350
1.623000 0.052207
1.624000 0.052042
1.625000 0.051946
1.626000 0.051834
1.627000 0.051615
1.628000 0.051230
1.629000 0.050847
1.630000 0.050555
1.631000 0.050291
1.632000 0.049987
1.633000 0.049592
1.634000 0.049123
1.635000 0.048755
1.636000 0.048451
1.637000 0.048159
1.638000 0.047833
1.639000 0.047445
1.640000 0.047016
1.641000 0.046658
1.642000 0.046362
1.643000 0.046142
1.644000 0.046021
1.645000 0.045997
1.646000 0.046002
1.647000 0.046011
1.648000 0.046273
1.649000 0.046763
1.650000 0.047423
1.651000 0.048130
1.652000 0.048741
1.653000 0.049139
1.654000 0.049279
1.655000 0.049175
1.656000 0.048857
1.657000 0.048349
1.658000 0.047898
1.659000 0.047712
1.660000 0.047795
1.661000 0.048115
1.662000 0.048605
1.663000 0.049183
1.664000 0.049778
1.665000 0.050340
1.666000 0.050840
1.667000 0.051273
1.668000 0.051640
1.669000 0.051860
1.670000 0.051885
1.671000 0.051897
1.672000 0.052090
1.673000 0.052439
1.674000 0.052900
1.675000 0.053420
1.676000 0.053978
1.677000 0.054586
1.678000 0.055277
1.679000 0.056089
1.680000 0.056980
1.681000 0.057925
1.682000 0.058873
1.683000 0.059774
1.684000 0.060586
1.685000 0.061279
1.686000 0.061834
1.687000 0.062246
1.688000 0.062522
1.689000 0.062680
1.690000 0.062702
1.691000 0.062733
1.692000 0.062849
1.693000 0.063051
1.694000 0.063321
1.695000 0.063607
1.696000 0.063913
1.697000 0.064246
1.698000 0.064596
1.699000 0.064946
1.700000 0.065283
1.701000 0.065593
1.702000 0.065894
1.703000 0.066216
1.704000 0.066563
1.705000 0.066895
1.706000 0.067146
1.707000 0.067258
1.708000 0.067211
1.709000 0.067256
1.710000 0.067341
1.711000 0.067415
1.712000 0.067447
1.713000 0.067429
1.714000 0.067363
1.715000 0.067278
1.716000 0.067249
1.717000 0.067275
1.718000 0.067347
1.719000 0.067444
1.720000 0.067547
1.721000 0.067639
1.722000 0.067710
1.723000 0.067749
1.724000 0.067754
1.725000 0.067743
1.726000 0.067729
1.727000 0.067721
1.728000 0.067761
1.729000 0.067876
1.730000 0.068070
1.731000 0.068326
1.732000 0.068605
1.733000 0.068865
1.734000 0.069080
1.735000 0.069241
1.736000 0.069347
1.737000 0.069401
1.738000 0.069408
1.739000 0.069373
1.740000 0.069301
1.741000 0.069211
1.742000 0.069149
1.743000 0.069114
1.744000 0.069097
1.745000 0.069092
1.746000 0.069089
1.747000 0.069084
1.748000 0.069078
1.749000 0.069073
1.750000 0.069075
1.751000 0.069077
1.752000 0.069066
1.753000 0.069051
1.754000 0.069037
1.755000 0.069034
1.756000 0.069047
1.757000 0.069081
1.758000 0.069134
1.759000 0.069205
1.760000 0.069277
1.761000 0.069321
1.762000 0.069332
1.763000 0.069311
1.764000 0.069257
1.765000 0.069173
1.766000 0.069067
1.767000 0.068950
1.768000 0.068832
1.769000 0.068716
1.770000 0.068603
1.771000 0.068494
1.772000 0.068389
1.773000 0.068287
1.774000 0.068195
1.775000 0.068120
1.776000 0.068068
1.777000 0.068043
1.778000 0.068046
1.779000 0.068074
1.780000 0.068085
1.781000 0.068076
1.782000 0.068060
1.783000 0.068046
1.784000 0.068041
1.785000 0.068047
1.786000 0.068069
1.787000 0.068107
1.788000 0.068143
1.789000 0.068189
1.790000 0.068227
1.791000 0.068237
1.792000 0.068208
1.793000 0.068138
1.794000 0.068033
1.795000 0.067900
1.796000 0.067745
1.797000 0.067569
1.798000 0.067372
1.799000 0.067157
1.800000 0.066931
1.801000 0.066686
1.802000 0.066419
1.803000 0.066132
1.804000 0.065829
1.805000 0.065515
1.806000 0.065201
1.807000 0.064899
1.808000 0.064622
1.809000 0.064376
1.810000 0.064198
1.811000 0.064090
1.812000 0.064053
1.813000 0.064082
1.814000 0.064169
1.815000 0.064258
1.816000 0.064341
1.817000 0.064426
1.818000 0.064517
1.819000 0.064622
1.820000 0.064746
1.821000 0.064896
1.822000 0.065080
1.823000 0.065235
1.824000 0.065356
1.825000 0.065451
1.826000 0.065533
1.827000 0.065611
1.828000 0.065686
1.829000 0.065713
1.830000 0.065675
1.831000 0.065594
1.832000 0.065505
1.833000 0.065411
1.834000 0.065317
1.835000 0.065231
1.836000 0.065155
1.837000 0.065091
1.838000 0.065039
1.839000 0.065001
1.840000 0.064977
1.841000 0.064969
1.842000 0.064987
1.843000 0.065050
1.844000 0.065180
1.845000 0.065255
1.846000 0.065250
1.847000 0.065159
1.848000 0.064990
1.849000 0.064762
1.850000 0.064509
1.851000 0.064260
1.852000 0.064034
1.853000 0.063840
1.854000 0.063678
1.855000 0.063538
1.856000 0.063495
1.857000 0.063560
1.858000 0.063710
1.859000 0.063858
1.860000 0.063988
1.861000 0.064092
1.862000 0.064170
1.863000 0.064222
1.864000 0.064246
1.865000 0.064240
1.866000 0.064203
1.867000 0.064131
1.868000 0.064029
1.869000 0.063949
1.870000 0.063883
1.871000 0.063815
1.872000 0.063734
1.873000 0.063642
1.874000 0.063548
1.875000 0.063470
1.876000 0.063422
1.877000 0.063413
1.878000 0.063441
1.879000 0.063496
1.880000 0.063555
1.881000 0.063606
1.882000 0.063656
1.883000 0.063707
1.884000 0.063759
1.885000 0.063814
1.886000 0.063867
1.887000 0.063911
1.888000 0.063931
1.889000 0.063911
1.890000 0.063835
1.891000 0.063694
1.892000 0.063550
1.893000 0.063398
1.894000 0.063228
1.895000 0.063033
1.896000 0.062808
1.897000 0.062575
1.898000 0.062428
1.899000 0.062366
1.900000 0.062370
1.901000 0.062409
1.902000 0.062453
1.903000 0.062490
1.904000 0.062499
1.905000 0.062498
1.906000 0.062522
1.907000 0.062572
1.908000 0.062647
1.909000 0.062699
1.910000 0.062681
1.911000 0.062616
1.912000 0.062589
1.913000 0.062595
1.914000 0.062621
1.915000 0.062653
1.916000 0.062678
1.917000 0.062681
1.918000 0.062646
1.919000 0.062568
1.920000 0.062448
1.921000 0.062289
1.922000 0.062176
1.923000 0.062108
1.924000 0.062079
1.925000 0.062086
1.926000 0.062122
1.927000 0.062181
1.928000 0.062252
1.929000 0.062319
1.930000 0.062361
1.931000 0.062358
1.932000 0.062324
1.933000 0.062306
1.934000 0.062283
1.935000 0.062237
1.936000 0.062159
1.937000 0.062057
1.938000 0.061946
1.939000 0.061846
1.940000 0.061772
1.941000 0.061736
1.942000 0.061743
1.943000 0.061755
1.944000 0.061766
1.945000 0.061780
1.946000 0.061797
1.947000 0.061820
1.948000 0.061854
1.949000 0.061900
1.950000 0.061952
1.951000 0.062003
1.952000 0.062049
1.953000 0.062094
1.954000 0.062139
1.955000 0.062191
1.956000 0.062223
1.957000 0.062228
1.958000 0.062209
1.959000 0.062172
1.960000 0.062141
1.961000 0.062142
1.962000 0.062147
1.963000 0.062101
1.964000 0.062042
1.965000 0.061999
1.966000 0.061987
1.967000 0.062014
1.968000 0.062085
1.969000 0.062202
1.970000 0.062356
1.971000 0.062537
1.972000 0.062728
1.973000 0.062912
1.974000 0.063069
1.975000 0.063188
1.976000 0.063268
1.977000 0.063315
1.978000 0.063337
1.979000 0.063339
1.980000 0.063336
1.981000 0.063350
1.982000 0.063293
1.983000 0.063170
1.984000 0.062983
1.985000 0.062746
1.986000 0.062497
1.987000 0.062255
1.988000 0.062022
1.989000 0.061796
1.990000 0.061577
1.991000 0.061377
1.992000 0.061220
1.993000 0.061115
1.994000 0.061070
1.995000 0.061087
1.996000 0.061144
1.997000 0.061147
1.998000 0.061089
1.999000 0.060972
2.000000 0.060806
2.001000 0.060604
2.002000 0.060374
2.003000 0.060117
2.004000 0.059828
2.005000 0.059504
2.006000 0.059144
2.007000 0.058754
2.008000 0.058368
2.009000 0.058058
2.010000 0.057904
2.011000 0.057942
2.012000 0.058140
2.013000 0.058270
2.014000 0.058360
2.015000 0.058454
2.016000 0.058500
2.017000 0.058457
2.018000 0.058342
2.019000 0.058159
2.020000 0.057911
2.021000 0.057681
2.022000 0.057568
2.023000 0.057656
2.024000 0.057779
2.025000 0.057834
2.026000 0.057891
2.027000 0.058032
2.028000 0.058318
2.029000 0.058582
2.030000 0.058725
2.031000 0.058798
2.032000 0.058859
2.033000 0.058949
2.034000 0.059043
2.035000 0.058959
2.036000 0.058854
2.037000 0.058816
2.038000 0.058881
2.039000 0.059070
2.040000 0.059362
2.041000 0.059649
2.042000 0.059948
2.043000 0.060262
2.044000 0.060582
2.045000 0.060919
2.046000 0.061336
2.047000 0.061839
2.048000 0.062128
2.049000 0.062141
2.050000 0.061877
2.051000 0.061371
2.052000 0.060665
2.053000 0.060105
2.054000 0.059878
2.055000 0.059955
2.056000 0.060272
2.057000 0.060762
2.058000 0.061143
2.059000 0.061191
2.060000 0.060892
2.061000 0.060274
2.062000 0.059508
2.063000 0.058843
2.064000 0.058317
2.065000 0.057949
2.066000 0.057741
2.067000 0.057659
2.068000 0.057653
2.069000 0.057679
2.070000 0.057714
2.071000 0.057671
2.072000 0.057599
2.073000 0.057459
2.074000 0.057217
2.075000 0.056847
2.076000 0.056321
2.077000 0.055672
2.078000 0.055065
2.079000 0.054369
2.080000 0.053472
2.081000 0.052668
2.082000 0.052102
2.083000 0.051846
2.084000 0.051928
2.085000 0.052348
2.086000 0.053086
2.087000 0.054098
2.088000 0.055318
2.089000 0.056665
2.090000 0.058060
2.091000 0.059300
2.092000 0.060292
2.093000 0.061033
2.094000 0.061526
2.095000 0.061786
2.096000 0.061842
2.097000 0.061735
2.098000 0.061513
2.099000 0.061216
2.100000 0.060891
2.101000 0.060693
2.102000 0.060599
2.103000 0.060569
2.104000 0.060577
2.105000 0.060633
2.106000 0.060783
2.107000 0.061079
2.108000 0.061541
2.109000 0.061894
2.110000 0.062120
2.111000 0.062178
2.112000 0.062072
2.113000 0.062270
2.114000 0.062705
2.115000 0.063257
2.116000 0.063774
2.117000 0.064221
2.118000 0.064623
2.119000 0.065025
2.120000 0.065459
2.121000 0.065938
2.122000 0.066455
2.123000 0.066996
2.124000 0.067543
2.125000 0.068077
2.126000 0.068576
2.127000 0.069021
2.128000 0.069353
2.129000 0.069515
2.130000 0.069482
2.131000 0.069271
2.132000 0.069006
2.133000 0.068841
2.134000 0.068797
2.135000 0.068882
2.136000 0.069097
2.137000 0.069432
2.138000 0.069867
2.139000 0.070366
2.140000 0.070873
2.141000 0.071317
2.142000 0.071616
2.143000 0.071768
2.144000 0.071802
2.145000 0.071762
2.146000 0.071741
2.147000 0.071770
2.148000 0.071842
2.149000 0.071955
2.150000 0.072095
2.151000 0.072240
2.152000 0.072360
2.153000 0.072432
2.154000 0.072444
2.155000 0.072398
2.156000 0.072375
2.157000 0.072370
2.158000 0.072379
2.159000 0.072398
2.160000 0.072429
2.161000 0.072478
2.162000 0.072557
2.163000 0.072678
2.164000 0.072850
2.165000 0.073071
2.166000 0.073322
2.167000 0.073567
2.168000 0.073772
2.169000 0.073919
2.170000 0.074007
2.171000 0.074049
2.172000 0.074066
2.173000 0.074085
2.174000 0.074107
2.175000 0.074104
2.176000 0.074087
2.177000 0.074146
2.178000 0.074273
2.179000 0.074445
2.180000 0.074650
2.181000 0.074900
2.182000 0.075211
2.183000 0.075582
2.184000 0.076000
2.185000 0.076433
2.186000 0.076847
2.187000 0.077217
2.188000 0.077531
2.189000 0.077786
2.190000 0.077983
2.191000 0.078129
2.192000 0.078226
2.193000 0.078280
2.194000 0.078297
2.195000 0.078284
2.196000 0.078274
2.197000 0.078296
2.198000 0.078348
2.199000 0.078417
2.200000 0.078490
2.201000 0.078567
2.202000 0.078647
2.203000 0.078727
2.204000 0.078806
2.205000 0.078884
2.206000 0.078963
2.207000 0.079049
2.208000 0.079147
2.209000 0.079262
2.210000 0.079368
2.211000 0.079458
2.212000 0.079525
2.213000 0.079563
2.214000 0.079567
2.215000 0.079538
2.216000 0.079479
2.217000 0.079393
2.218000 0.079283
2.219000 0.079153
2.220000 0.079011
2.221000 0.078863
2.222000 0.078716
2.223000 0.078576
2.224000 0.078451
2.225000 0.078345
2.226000 0.078263
2.227000 0.078210
2.228000 0.078188
2.229000 0.078200
2.230000 0.078241
2.231000 0.078297
2.232000 0.078338
2.233000 0.078368
2.234000 0.078385
2.235000 0.078385
2.236000 0.078365
2.237000 0.078327
2.238000 0.078275
2.239000 0.078212
2.240000 0.078144
2.241000 0.078078
2.242000 0.078011
2.243000 0.077938
2.244000 0.077854
2.245000 0.077754
2.246000 0.077633
2.247000 0.077484
2.248000 0.077304
2.249000 0.077123
2.250000 0.076959
2.251000 0.076816
2.252000 0.076699
2.253000 0.076609
2.254000 0.076544
2.255000 0.076553
2.256000 0.076559
2.257000 0.076536
2.258000 0.076485
2.259000 0.076415
2.260000 0.076335
2.261000 0.076255
2.262000 0.076181
2.263000 0.076119
2.264000 0.076076
2.265000 0.076051
2.266000 0.076039
2.267000 0.076038
2.268000 0.076038
2.269000 0.076022
2.270000 0.076005
2.271000 0.075995
2.272000 0.075997
2.273000 0.076011
2.274000 0.076034
2.275000 0.076062
2.276000 0.076095
2.277000 0.076133
2.278000 0.076180
2.279000 0.076236
2.280000 0.076298
2.281000 0.076362
2.282000 0.076420
2.283000 0.076467
2.284000 0.076497
2.285000 0.076505
2.286000 0.076490
2.287000 0.076455
2.288000 0.076409
2.289000 0.076361
2.290000 0.076339
2.291000 0.076380
2.292000 0.076418
2.293000 0.076452
2.294000 0.076483
2.295000 0.076516
2.296000 0.076557
2.297000 0.076589
2.298000 0.076524
2.299000 0.076458
2.300000 0.076410
2.301000 0.076405
2.302000 0.076457
2.303000 0.076569
2.304000 0.076729
2.305000 0.076859
2.306000 0.076927
2.307000 0.076938
2.308000 0.076907
2.309000 0.076857
2.310000 0.076826
2.311000 0.076832
2.312000 0.076790
2.313000 0.076703
2.314000 0.076582
2.315000 0.076437
2.316000 0.076272
2.317000 0.076096
2.318000 0.075975
2.319000 0.075944
2.320000 0.076019
2.321000 0.076202
2.322000 0.076397
2.323000 0.076588
2.324000 0.076759
2.325000 0.076896
2.326000 0.076992
2.327000 0.077046
2.328000 0.077064
2.329000 0.077056
2.330000 0.077040
2.331000 0.077029
2.332000 0.077029
2.333000 0.077020
2.334000 0.077010
2.335000 0.077007
2.336000 0.077013
2.337000 0.077027
2.338000 0.077050
2.339000 0.077085
2.340000 0.077128
2.341000 0.077172
2.342000 0.077208
2.343000 0.077234
2.344000 0.077257
2.345000 0.077288
2.346000 0.077338
2.347000 0.077410
2.348000 0.077495
2.349000 0.077578
2.350000 0.077645
2.351000 0.077682
2.352000 0.077675
2.353000 0.077617
2.354000 0.077579
2.355000 0.077599
2.356000 0.077652
2.357000 0.077717
2.358000 0.077787
2.359000 0.077861
2.360000 0.077933
2.361000 0.077994
2.362000 0.078060
2.363000 0.078145
2.364000 0.078213
2.365000 0.078239
2.366000 0.078214
2.367000 0.078131
2.368000 0.077980
2.369000 0.077753
2.370000 0.077452
2.371000 0.077092
2.372000 0.076701
2.373000 0.076318
2.374000 0.075974
2.375000 0.075688
2.376000 0.075467
2.377000 0.075332
2.378000 0.075262
2.379000 0.075233
2.380000 0.075219
2.381000 0.075212
2.382000 0.075281
2.383000 0.075422
2.384000 0.075650
2.385000 0.075964
2.386000 0.076321
2.387000 0.076679
2.388000 0.077009
2.389000 0.077296
2.390000 0.077539
2.391000 0.077737
2.392000 0.077883
2.393000 0.077982
2.394000 0.078036
2.395000 0.078052
2.396000 0.078039
2.397000 0.078009
2.398000 0.077977
2.399000 0.077963
2.400000 0.077985
2.401000 0.078054
2.402000 0.078170
2.403000 0.078321
2.404000 0.078486
2.405000 0.078640
2.406000 0.078764
2.407000 0.078839
2.408000 0.078851
2.409000 0.078786
2.410000 0.078641
2.411000 0.078436
2.412000 0.078267
2.413000 0.078151
2.414000 0.078096
2.415000 0.078096
2.416000 0.078132
2.417000 0.078178
2.418000 0.078208
2.419000 0.078211
2.420000 0.078227
2.421000 0.078264
2.422000 0.078287
2.423000 0.078266
2.424000 0.078183
2.425000 0.078035
2.426000 0.077831
2.427000 0.077579
2.428000 0.077291
2.429000 0.076986
2.430000 0.076686
2.431000 0.076411
2.432000 0.076172
2.433000 0.075993
2.434000 0.075916
2.435000 0.075952
2.436000 0.075983
2.437000 0.075964
2.438000 0.075895
2.439000 0.075775
2.440000 0.075605
2.441000 0.075393
2.442000 0.075149
2.443000 0.074881
2.444000 0.074592
2.445000 0.074283
2.446000 0.073946
2.447000 0.073572
2.448000 0.073169
2.449000 0.072765
2.450000 0.072401
2.451000 0.072144
2.452000 0.072167
2.453000 0.072198
2.454000 0.072076
2.455000 0.071826
2.456000 0.071498
2.457000 0.071153
2.458000 0.070835
2.459000 0.070574
2.460000 0.070397
2.461000 0.070327
2.462000 0.070279
2.463000 0.070123
2.464000 0.069874
2.465000 0.069541
2.466000 0.069165
2.467000 0.068793
2.468000 0.068462
2.469000 0.068213
2.470000 0.068095
2.471000 0.068043
2.472000 0.067832
2.473000 0.067531
2.474000 0.067235
2.475000 0.067044
2.476000 0.067025
2.477000 0.067146
2.478000 0.067207
2.479000 0.067292
2.480000 0.067486
2.481000 0.067514
2.482000 0.067275
2.483000 0.066752
2.484000 0.065979
2.485000 0.065016
2.486000 0.063931
2.487000 0.062790
2.488000 0.061644
2.489000 0.060533
2.490000 0.059492
2.491000 0.058547
2.492000 0.057737
2.493000 0.057111
2.494000 0.056710
2.495000 0.056539
2.496000 0.056548
2.497000 0.056651
2.498000 0.056763
2.499000 0.056854
2.500000 0.056921
2.501000 0.056871
2.502000 0.056786
2.503000 0.056720
2.504000 0.056664
2.505000 0.056553
2.506000 0.056301
2.507000 0.055912
2.508000 0.055755
2.509000 0.055855
2.510000 0.056242
2.511000 0.056934
2.512000 0.057885
2.513000 0.058570
2.514000 0.059013
2.515000 0.059290
2.516000 0.059500
2.517000 0.059718
2.518000 0.059975
2.519000 0.060271
2.520000 0.060606
2.521000 0.060991
2.522000 0.061441
2.523000 0.061953
2.524000 0.062505
2.525000 0.063065
2.526000 0.063596
2.527000 0.064061
2.528000 0.064430
2.529000 0.064701
2.530000 0.064891
2.531000 0.065018
2.532000 0.065014
2.533000 0.064990
2.534000 0.064999
2.535000 0.065032
2.536000 0.065086
2.537000 0.065169
2.538000 0.065285
2.539000 0.065437
2.540000 0.065618
2.541000 0.065807
2.542000 0.065960
2.543000 0.066018
2.544000 0.065932
2.545000 0.066124
2.546000 0.066463
2.547000 0.066850
2.548000 0.067229
2.549000 0.067570
2.550000 0.067872
2.551000 0.068144
2.552000 0.068391
2.553000 0.068603
2.554000 0.068770
2.555000 0.068885
2.556000 0.068873
2.557000 0.068861
2.558000 0.068903
2.559000 0.069009
2.560000 0.069179
2.561000 0.069396
2.562000 0.069616
2.563000 0.069772
2.564000 0.069798
2.565000 0.069656
2.566000 0.069378
2.567000 0.069243
2.568000 0.069265
2.569000 0.069431
2.570000 0.069695
2.571000 0.069990
2.572000 0.070239
2.573000 0.070377
2.574000 0.070382
2.575000 0.070407
2.576000 0.070532
2.577000 0.070605
2.578000 0.070579
2.579000 0.070456
2.580000 0.070267
2.581000 0.070046
2.582000 0.069826
2.583000 0.069637
2.584000 0.069502
2.585000 0.069422
2.586000 0.069368
2.587000 0.069288
2.588000 0.069140
2.589000 0.068915
2.590000 0.068702
2.591000 0.068626
2.592000 0.068646
2.593000 0.068718
2.594000 0.068801
2.595000 0.068871
2.596000 0.068884
2.597000 0.068866
2.598000 0.068817
2.599000 0.068820
2.600000 0.068940
2.601000 0.069172
2.602000 0.069462
2.603000 0.069757
2.604000 0.070048
2.605000 0.070352
2.606000 0.070680
2.607000 0.071006
2.608000 0.071286
2.609000 0.071473
2.610000 0.071537
2.611000 0.071473
2.612000 0.071417
2.613000 0.071463
2.614000 0.071559
2.615000 0.071642
2.616000 0.071662
2.617000 0.071607
2.618000 0.071633
2.619000 0.071706
2.620000 0.071800
2.621000 0.071902
2.622000 0.072006
2.623000 0.072105
2.624000 0.072198
2.625000 0.072285
2.626000 0.072364
2.627000 0.072431
2.628000 0.072478
2.629000 0.072500
2.630000 0.072492
2.631000 0.072447
2.632000 0.072408
2.633000 0.072402
2.634000 0.072414
2.635000 0.072419
2.636000 0.072396
2.637000 0.072341
2.638000 0.072269
2.639000 0.072198
2.640000 0.072143
2.641000 0.072112
2.642000 0.072105
2.643000 0.072120
2.644000 0.072151
2.645000 0.072194
2.646000 0.072248
2.647000 0.072318
2.648000 0.072405
2.649000 0.072484
2.650000 0.072543
2.651000 0.072589
2.652000 0.072631
2.653000 0.072680
2.654000 0.072749
2.655000 0.072798
2.656000 0.072812
2.657000 0.072795
2.658000 0.072754
2.659000 0.072694
2.660000 0.072619
2.661000 0.072534
2.662000 0.072448
2.663000 0.072372
2.664000 0.072312
2.665000 0.072279
2.666000 0.072278
2.667000 0.072310
2.668000 0.072369
2.669000 0.072416
2.670000 0.072442
2.671000 0.072453
2.672000 0.072452
2.673000 0.072440
2.674000 0.072416
2.675000 0.072380
2.676000 0.072333
2.677000 0.072274
2.678000 0.072202
2.679000 0.072119
2.680000 0.072033
2.681000 0.071954
2.682000 0.071890
2.683000 0.071847
2.684000 0.071823
2.685000 0.071812
2.686000 0.071806
2.687000 0.071806
2.688000 0.071815
2.689000 0.071843
2.690000 0.071870
2.691000 0.071850
2.692000 0.071774
2.693000 0.071688
2.694000 0.071619
2.695000 0.071588
2.696000 0.071607
2.697000 0.071682
2.698000 0.071812
2.699000 0.071901
2.700000 0.071937
2.701000 0.071914
2.702000 0.071834
2.703000 0.071704
2.704000 0.071532
2.705000 0.071413
2.706000 0.071358
2.707000 0.071363
2.708000 0.071425
2.709000 0.071535
2.710000 0.071679
2.711000 0.071818
2.712000 0.071961
2.713000 0.072115
2.714000 0.072280
2.715000 0.072456
2.716000 0.072644
2.717000 0.072844
2.718000 0.073003
2.719000 0.073093
2.720000 0.073111
2.721000 0.073053
2.722000 0.072925
2.723000 0.072745
2.724000 0.072534
2.725000 0.072309
2.726000 0.072084
2.727000 0.071920
2.728000 0.071832
2.729000 0.071822
2.730000 0.071885
2.731000 0.072017
2.732000 0.072189
2.733000 0.072358
2.734000 0.072523
2.735000 0.072677
2.736000 0.072813
2.737000 0.072930
2.738000 0.073030
2.739000 0.073116
2.740000 0.073192
2.741000 0.073263
2.742000 0.073333
2.743000 0.073402
2.744000 0.073465
2.745000 0.073514
2.746000 0.073537
2.747000 0.073526
2.748000 0.073481
2.749000 0.073409
2.750000 0.073329
2.751000 0.073265
2.752000 0.073236
2.753000 0.073250
2.754000 0.073234
2.755000 0.073162
2.756000 0.073094
2.757000 0.073049
2.758000 0.073032
2.759000 0.073037
2.760000 0.073054
2.761000 0.073067
2.762000 0.073060
2.763000 0.073024
2.764000 0.072956
2.765000 0.072883
2.766000 0.072852
2.767000 0.072859
2.768000 0.072903
2.769000 0.072981
2.770000 0.073095
2.771000 0.073239
2.772000 0.073401
2.773000 0.073566
2.774000 0.073721
2.775000 0.073859
2.776000 0.073969
2.777000 0.074018
2.778000 0.074017
2.779000 0.073991
2.780000 0.073968
2.781000 0.073959
2.782000 0.073894
2.783000 0.073753
2.784000 0.073527
2.785000 0.073227
2.786000 0.072879
2.787000 0.072518
2.788000 0.072171
2.789000 0.071885
2.790000 0.071682
2.791000 0.071560
2.792000 0.071502
2.793000 0.071488
2.794000 0.071502
2.795000 0.071529
2.796000 0.071560
2.797000 0.071582
2.798000 0.071584
2.799000 0.071551
2.800000 0.071488
2.801000 0.071410
2.802000 0.071309
2.803000 0.071184
2.804000 0.071042
2.805000 0.070891
2.806000 0.070734
2.807000 0.070596
2.808000 0.070516
2.809000 0.070490
2.810000 0.070503
2.811000 0.070530
2.812000 0.070485
2.813000 0.070432
2.814000 0.070383
2.815000 0.070350
2.816000 0.070342
2.817000 0.070364
2.818000 0.070414
2.819000 0.070481
2.820000 0.070518
2.821000 0.070464
2.822000 0.070388
2.823000 0.070328
2.824000 0.070295
2.825000 0.070297
2.826000 0.070335
2.827000 0.070405
2.828000 0.070495
2.829000 0.070586
2.830000 0.070664
2.831000 0.070727
2.832000 0.070779
2.833000 0.070814
2.834000 0.070803
2.835000 0.070749
2.836000 0.070663
2.837000 0.070552
2.838000 0.070435
2.839000 0.070329
2.840000 0.070244
2.841000 0.070192
2.842000 0.070177
2.843000 0.070197
2.844000 0.070236
2.845000 0.070276
2.846000 0.070308
2.847000 0.070329
2.848000 0.070347
2.849000 0.070381
2.850000 0.070459
2.851000 0.070577
2.852000 0.070615
2.853000 0.070580
2.854000 0.070489
2.855000 0.070359
2.856000 0.070210
2.857000 0.070062
2.858000 0.069937
2.859000 0.069846
2.860000 0.069790
2.861000 0.069764
2.862000 0.069768
2.863000 0.069755
2.864000 0.069738
2.865000 0.069743
2.866000 0.069752
2.867000 0.069748
2.868000 0.069740
2.869000 0.069736
2.870000 0.069738
2.871000 0.069741
2.872000 0.069764
2.873000 0.069812
2.874000 0.069872
2.875000 0.069921
2.876000 0.069940
2.877000 0.069916
2.878000 0.069842
2.879000 0.069724
2.880000 0.069571
2.881000 0.069397
2.882000 0.069232
2.883000 0.069135
2.884000 0.069089
2.885000 0.069059
2.886000 0.069003
2.887000 0.068890
2.888000 0.068716
2.889000 0.068500
2.890000 0.068271
2.891000 0.068048
2.892000 0.067826
2.893000 0.067580
2.894000 0.067286
2.895000 0.066936
2.896000 0.066558
2.897000 0.066210
2.898000 0.065952
2.899000 0.065803
2.900000 0.065734
2.901000 0.065683
2.902000 0.065576
2.903000 0.065378
2.904000 0.065124
2.905000 0.064899
2.906000 0.064797
2.907000 0.064811
2.908000 0.064569
2.909000 0.064068
2.910000 0.063353
2.911000 0.062498
2.912000 0.061581
2.913000 0.060665
2.914000 0.059786
2.915000 0.058960
2.916000 0.058178
2.917000 0.057436
2.918000 0.056697
2.919000 0.055937
2.920000 0.055150
2.921000 0.054326
2.922000 0.053457
2.923000 0.052551
2.924000 0.051629
2.925000 0.050731
2.926000 0.049900
2.927000 0.049180
2.928000 0.048603
2.929000 0.048178
2.930000 0.047888
2.931000 0.047713
2.932000 0.047718
2.933000 0.047690
2.934000 0.047555
2.935000 0.047310
2.936000 0.046943
2.937000 0.046446
2.938000 0.045820
2.939000 0.045139
2.940000 0.044491
2.941000 0.043949
2.942000 0.043573
2.943000 0.043400
2.944000 0.043427
2.945000 0.043244
2.946000 0.042964
2.947000 0.042639
2.948000 0.042306
2.949000 0.041972
2.950000 0.041626
2.951000 0.041266
2.952000 0.040904
2.953000 0.040639
2.954000 0.040510
2.955000 0.040502
2.956000 0.040589
2.957000 0.040637
2.958000 0.040601
2.959000 0.040492
2.960000 0.040330
2.961000 0.040148
2.962000 0.040005
2.963000 0.039982
2.964000 0.040146
2.965000 0.040535
2.966000 0.041110
2.967000 0.041579
2.968000 0.041899
2.969000 0.042038
2.970000 0.041992
2.971000 0.041799
2.972000 0.041530
2.973000 0.041394
2.974000 0.041425
2.975000 0.041427
2.976000 0.041292
2.977000 0.041222
2.978000 0.041257
2.979000 0.041380
2.980000 0.041515
2.981000 0.041548
2.982000 0.041508
2.983000 0.041597
2.984000 0.041821
2.985000 0.042172
2.986000 0.042642
2.987000 0.043224
2.988000 0.043882
2.989000 0.044552
2.990000 0.045088
2.991000 0.045345
2.992000 0.045404
2.993000 0.045392
2.994000 0.045439
2.995000 0.045642
2.996000 0.046044
2.997000 0.046572
2.998000 0.047162
2.999000 0.047650
3.000000 0.047898
3.001000 0.047864
3.002000 0.047578
3.003000 0.047246
3.004000 0.047061
3.005000 0.046941
3.006000 0.046813
3.007000 0.046648
3.008000 0.046450
3.009000 0.046245
3.010000 0.046068
3.011000 0.046070
3.012000 0.046105
3.013000 0.046055
3.014000 0.045957
3.015000 0.045859
3.016000 0.045800
3.017000 0.045800
3.018000 0.045738
3.019000 0.045630
3.020000 0.045537
3.021000 0.045461
3.022000 0.045377
3.023000 0.045255
3.024000 0.045148
3.025000 0.045118
3.026000 0.045174
3.027000 0.045321
3.028000 0.045539
3.029000 0.045769
3.030000 0.045926
3.031000 0.045941
3.032000 0.046081
3.033000 0.046329
3.034000 0.046612
3.035000 0.046870
3.036000 0.047067
3.037000 0.047206
3.038000 0.047333
3.039000 0.047526
3.040000 0.047868
3.041000 0.048407
3.042000 0.049120
3.043000 0.049937
3.044000 0.050776
3.045000 0.051568
3.046000 0.052261
3.047000 0.052823
3.048000 0.053240
3.049000 0.053509
3.050000 0.053638
3.051000 0.053634
3.052000 0.053582
3.053000 0.053634
3.054000 0.053764
3.055000 0.053944
3.056000 0.054146
3.057000 0.054341
3.058000 0.054510
3.059000 0.054647
3.060000 0.054763
3.061000 0.054879
3.062000 0.055014
3.063000 0.055178
3.064000 0.055373
3.065000 0.055596
3.066000 0.055841
3.067000 0.056113
3.068000 0.056422
3.069000 0.056783
3.070000 0.057188
3.071000 0.057595
3.072000 0.057920
3.073000 0.058089
3.074000 0.058068
3.075000 0.058146
3.076000 0.058343
3.077000 0.058597
3.078000 0.058871
3.079000 0.059153
3.080000 0.059446
3.081000 0.059751
3.082000 0.060062
3.083000 0.060364
3.084000 0.060644
3.085000 0.060899
3.086000 0.061135
3.087000 0.061356
3.088000 0.061564
3.089000 0.061759
3.090000 0.061939
3.091000 0.062107
3.092000 0.062259
3.093000 0.062348
3.094000 0.062355
3.095000 0.062283
3.096000 0.062243
3.097000 0.062236
3.098000 0.062261
3.099000 0.062326
3.100000 0.062434
3.101000 0.062592
3.102000 0.062800
3.103000 0.063051
3.104000 0.063312
3.105000 0.063451
3.106000 0.063440
3.107000 0.063389
3.108000 0.063397
3.109000 0.063414
3.110000 0.063400
3.111000 0.063338
3.112000 0.063223
3.113000 0.063058
3.114000 0.062853
3.115000 0.062626
3.116000 0.062416
3.117000 0.062229
3.118000 0.062064
3.119000 0.061917
3.120000 0.061784
3.121000 0.061662
3.122000 0.061556
3.123000 0.061480
3.124000 0.061438
3.125000 0.061431
3.126000 0.061460
3.127000 0.061469
3.128000 0.061440
3.129000 0.061365
3.130000 0.061250
3.131000 0.061131
3.132000 0.061007
3.133000 0.060876
3.134000 0.060740
3.135000 0.060606
3.136000 0.060481
3.137000 0.060370
3.138000 0.060272
3.139000 0.060179
3.140000 0.060085
3.141000 0.059984
3.142000 0.059874
3.143000 0.059758
3.144000 0.059640
3.145000 0.059525
3.146000 0.059422
3.147000 0.059336
3.148000 0.059276
3.149000 0.059250
3.150000 0.059260
3.151000 0.059305
3.152000 0.059381
3.153000 0.059479
3.154000 0.059591
3.155000 0.059696
3.156000 0.059756
3.157000 0.059767
3.158000 0.059733
3.159000 0.059661
3.160000 0.059571
3.161000 0.059503
3.162000 0.059463
3.163000 0.059459
3.164000 0.059497
3.165000 0.059552
3.166000 0.059573
3.167000 0.059556
3.168000 0.059500
3.169000 0.059405
3.170000 0.059270
3.171000 0.059095
3.172000 0.058924
3.173000 0.058779
3.174000 0.058668
3.175000 0.058602
3.176000 0.058592
3.177000 0.058640
3.178000 0.058741
3.179000 0.058885
3.180000 0.059061
3.181000 0.059254
3.182000 0.059447
3.183000 0.059630
3.184000 0.059796
3.185000 0.059937
3.186000 0.060056
3.187000 0.060162
3.188000 0.060261
3.189000 0.060323
3.190000 0.060337
3.191000 0.060306
3.192000 0.060246
3.193000 0.060182
3.194000 0.060135
3.195000 0.060115
3.196000 0.060125
3.197000 0.060165
3.198000 0.060235
3.199000 0.060338
3.200000 0.060457
3.201000 0.060563
3.202000 0.060659
3.203000 0.060746
3.204000 0.060824
3.205000 0.060894
3.206000 0.060958
3.207000 0.060993
3.208000 0.060956
3.209000 0.060957
3.210000 0.061027
3.211000 0.061186
3.212000 0.061442
3.213000 0.061727
3.214000 0.062031
3.215000 0.062343
3.216000 0.062652
3.217000 0.062953
3.218000 0.063245
3.219000 0.063535
3.220000 0.063827
3.221000 0.064123
3.222000 0.064357
3.223000 0.064505
3.224000 0.064580
3.225000 0.064589
3.226000 0.064540
3.227000 0.064440
3.228000 0.064299
3.229000 0.064187
3.230000 0.064118
3.231000 0.064080
3.232000 0.064064
3.233000 0.064059
3.234000 0.064061
3.235000 0.064063
3.236000 0.064070
3.237000 0.064099
3.238000 0.064144
3.239000 0.064196
3.240000 0.064245
3.241000 0.064276
3.242000 0.064275
3.243000 0.064242
3.244000 0.064190
3.245000 0.064141
3.246000 0.064116
3.247000 0.064121
3.248000 0.064154
3.249000 0.064200
3.250000 0.064244
3.251000 0.064268
3.252000 0.064255
3.253000 0.064193
3.254000 0.064077
3.255000 0.063979
3.256000 0.063958
3.257000 0.064003
3.258000 0.064101
3.259000 0.064240
3.260000 0.064405
3.261000 0.064583
3.262000 0.064746
3.263000 0.064892
3.264000 0.065014
3.265000 0.065098
3.266000 0.065140
3.267000 0.065139
3.268000 0.065126
3.269000 0.065160
3.270000 0.065245
3.271000 0.065351
3.272000 0.065432
3.273000 0.065467
3.274000 0.065444
3.275000 0.065363
3.276000 0.065243
3.277000 0.065183
3.278000 0.065182
3.279000 0.065232
3.280000 0.065321
3.281000 0.065438
3.282000 0.065548
3.283000 0.065578
3.284000 0.065513
3.285000 0.065394
3.286000 0.065308
3.287000 0.065278
3.288000 0.065318
3.289000 0.065432
3.290000 0.065614
3.291000 0.065858
3.292000 0.066151
3.293000 0.066475
3.294000 0.066808
3.295000 0.067130
3.296000 0.067425
3.297000 0.067676
3.298000 0.067868
3.299000 0.067992
3.300000 0.068041
3.301000 0.068034
3.302000 0.068090
3.303000 0.068196
3.304000 0.068338
3.305000 0.068503
3.306000 0.068673
3.307000 0.068837
3.308000 0.068980
3.309000 0.069090
3.310000 0.069157
3.311000 0.069172
3.312000 0.069128
3.313000 0.069132
3.314000 0.069209
3.315000 0.069349
3.316000 0.069524
3.317000 0.069674
3.318000 0.069774
3.319000 0.069804
3.320000 0.069757
3.321000 0.069634
3.322000 0.069467
3.323000 0.069318
3.324000 0.069187
3.325000 0.069067
3.326000 0.068951
3.327000 0.068837
3.328000 0.068733
3.329000 0.068644
3.330000 0.068576
3.331000 0.068599
3.332000 0.068628
3.333000 0.068648
3.334000 0.068662
3.335000 0.068671
3.336000 0.068675
3.337000 0.068681
3.338000 0.068699
3.339000 0.068688
3.340000 0.068626
3.341000 0.068538
3.342000 0.068434
3.343000 0.068355
3.344000 0.068347
3.345000 0.068372
3.346000 0.068361
3.347000 0.068336
3.348000 0.068321
3.349000 0.068330
3.350000 0.068368
3.351000 0.068434
3.352000 0.068531
3.353000 0.068587
3.354000 0.068582
3.355000 0.068544
3.356000 0.068501
3.357000 0.068472
3.358000 0.068469
3.359000 0.068482
3.360000 0.068491
3.361000 0.068463
3.362000 0.068360
3.363000 0.068150
3.364000 0.067815
3.365000 0.067361
3.366000 0.066813
3.367000 0.066220
3.368000 0.065644
3.369000 0.065153
3.370000 0.064803
3.371000 0.064616
3.372000 0.064580
3.373000 0.064531
3.374000 0.064456
3.375000 0.064422
3.376000 0.064439
3.377000 0.064358
3.378000 0.064187
3.379000 0.064001
3.380000 0.063859
3.381000 0.063824
3.382000 0.063812
3.383000 0.063583
3.384000 0.063122
3.385000 0.062470
3.386000 0.061701
3.387000 0.060905
3.388000 0.060173
3.389000 0.059587
3.390000 0.059206
3.391000 0.059048
3.392000 0.059074
3.393000 0.059186
3.394000 0.059263
3.395000 0.059194
3.396000 0.058904
3.397000 0.058376
3.398000 0.057896
3.399000 0.057575
3.400000 0.057452
3.401000 0.057528
3.402000 0.057778
3.403000 0.058018
3.404000 0.058047
3.405000 0.057922
3.406000 0.057710
3.407000 0.057467
3.408000 0.057309
3.409000 0.057302
3.410000 0.057424
3.411000 0.057512
3.412000 0.057575
3.413000 0.057638
3.414000 0.057728
3.415000 0.057877
3.416000 0.058120
3.417000 0.058471
3.418000 0.058909
3.419000 0.059449
3.420000 0.060027
3.421000 0.060594
3.422000 0.061101
3.423000 0.061526
3.424000 0.061800
3.425000 0.061870
3.426000 0.061746
3.427000 0.061492
3.428000 0.061262
3.429000 0.061080
3.430000 0.060983
3.431000 0.061008
3.432000 0.060870
3.433000 0.060664
3.434000 0.060426
3.435000 0.060162
3.436000 0.059974
3.437000 0.060011
3.438000 0.060159
3.439000 0.060231
3.440000 0.060056
3.441000 0.059579
3.442000 0.058896
3.443000 0.058181
3.444000 0.057597
3.445000 0.057238
3.446000 0.057111
3.447000 0.057166
3.448000 0.057327
3.449000 0.057513
3.450000 0.057660
3.451000 0.057747
3.452000 0.057716
3.453000 0.057693
3.454000 0.057636
3.455000 0.057478
3.456000 0.057258
3.457000 0.057231
3.458000 0.057394
3.459000 0.057684
3.460000 0.058008
3.461000 0.058274
3.462000 0.058418
3.463000 0.058402
3.464000 0.058219
3.465000 0.058023
3.466000 0.057841
3.467000 0.057596
3.468000 0.057223
3.469000 0.056888
3.470000 0.056541
3.471000 0.056146
3.472000 0.055776
3.473000 0.055654
3.474000 0.055736
3.475000 0.055632
3.476000 0.055554
3.477000 0.055697
3.478000 0.056103
3.479000 0.056713
3.480000 0.057436
3.481000 0.058198
3.482000 0.058967
3.483000 0.059747
3.484000 0.060553
3.485000 0.061383
3.486000 0.062217
3.487000 0.063029
3.488000 0.063803
3.489000 0.064536
3.490000 0.065241
3.491000 0.065934
3.492000 0.066613
3.493000 0.067244
3.494000 0.067767
3.495000 0.068108
3.496000 0.068119
3.497000 0.068194
3.498000 0.068408
3.499000 0.068671
3.500000 0.068902
3.501000 0.069031
3.502000 0.068994
3.503000 0.068746
3.504000 0.068653
3.505000 0.068815
3.506000 0.069178
3.507000 0.069549
3.508000 0.069756
3.509000 0.069817
3.510000 0.069785
3.511000 0.069724
3.512000 0.069696
3.513000 0.069751
3.514000 0.069909
3.515000 0.070163
3.516000 0.070457
3.517000 0.070761
3.518000 0.071047
3.519000 0.071291
3.520000 0.071470
3.521000 0.071571
3.522000 0.071598
3.523000 0.071626
3.524000 0.071696
3.525000 0.071796
3.526000 0.071919
3.527000 0.072064
3.528000 0.072235
3.529000 0.072439
3.530000 0.072668
3.531000 0.072887
3.532000 0.073099
3.533000 0.073309
3.534000 0.073522
3.535000 0.073736
3.536000 0.073949
3.537000 0.074159
3.538000 0.074369
3.539000 0.074584
3.540000 0.074808
3.541000 0.075036
3.542000 0.075261
3.543000 0.075473
3.544000 0.075668
3.545000 0.075832
3.546000 0.075931
3.547000 0.075919
3.548000 0.075942
3.549000 0.076052
3.550000 0.076207
3.551000 0.076359
3.552000 0.076484
3.553000 0.076580
3.554000 0.076655
3.555000 0.076721
3.556000 0.076785
3.557000 0.076855
3.558000 0.076934
3.559000 0.077025
3.560000 0.077118
3.561000 0.077183
3.562000 0.077220
3.563000 0.077230
3.564000 0.077211
3.565000 0.077162
3.566000 0.077096
3.567000 0.077056
3.568000 0.077046
3.569000 0.077067
3.570000 0.077122
3.571000 0.077214
3.572000 0.077306
3.573000 0.077382
3.574000 0.077439
3.575000 0.077478
3.576000 0.077502
3.577000 0.077512
3.578000 0.077509
3.579000 0.077492
3.580000 0.077460
3.581000 0.077418
3.582000 0.077366
3.583000 0.077307
3.584000 0.077242
3.585000 0.077176
3.586000 0.077114
3.587000 0.077058
3.588000 0.077015
3.589000 0.076994
3.590000 0.076991
3.591000 0.076999
3.592000 0.077002
3.593000 0.076986
3.594000 0.076941
3.595000 0.076867
3.596000 0.076776
3.597000 0.076689
3.598000 0.076608
3.599000 0.076531
3.600000 0.076455
3.601000 0.076379
3.602000 0.076302
3.603000 0.076222
3.604000 0.076143
3.605000 0.076071
3.606000 0.076014
3.607000 0.075983
3.608000 0.075986
3.609000 0.075938
3.610000 0.075836
3.611000 0.075676
3.612000 0.075458
3.613000 0.075183
3.614000 0.074860
3.615000 0.074499
3.616000 0.074118
3.617000 0.073733
3.618000 0.073366
3.619000 0.073032
3.620000 0.072742
3.621000 0.072498
3.622000 0.072298
3.623000 0.072142
3.624000 0.072029
3.625000 0.071956
3.626000 0.071924
3.627000 0.071927
3.628000 0.071962
3.629000 0.071977
3.630000 0.071975
3.631000 0.071977
3.632000 0.071995
3.633000 0.072034
3.634000 0.072090
3.635000 0.072158
3.636000 0.072212
3.637000 0.072226
3.638000 0.072195
3.639000 0.072122
3.640000 0.072028
3.641000 0.071918
3.642000 0.071809
3.643000 0.071706
3.644000 0.071614
3.645000 0.071535
3.646000 0.071472
3.647000 0.071430
3.648000 0.071415
3.649000 0.071431
3.650000 0.071482
3.651000 0.071568
3.652000 0.071692
3.653000 0.071857
3.654000 0.072067
3.655000 0.072254
3.656000 0.072361
3.657000 0.072388
3.658000 0.072335
3.659000 0.072198
3.660000 0.072055
3.661000 0.071988
3.662000 0.072000
3.663000 0.072080
3.664000 0.072210
3.665000 0.072369
3.666000 0.072534
3.667000 0.072691
3.668000 0.072803
3.669000 0.072812
3.670000 0.072726
3.671000 0.072650
3.672000 0.072609
3.673000 0.072616
3.674000 0.072683
3.675000 0.072809
3.676000 0.072973
3.677000 0.073066
3.678000 0.073080
3.679000 0.073012
3.680000 0.072868
3.681000 0.072788
3.682000 0.072796
3.683000 0.072896
3.684000 0.073082
3.685000 0.073301
3.686000 0.073459
3.687000 0.073542
3.688000 0.073549
3.689000 0.073493
3.690000 0.073386
3.691000 0.073229
3.692000 0.073028
3.693000 0.072789
3.694000 0.072531
3.695000 0.072269
3.696000 0.072020
3.697000 0.071802
3.698000 0.071629
3.699000 0.071512
3.700000 0.071454
3.701000 0.071451
3.702000 0.071387
3.703000 0.071265
3.704000 0.071089
3.705000 0.070876
3.706000 0.070675
3.707000 0.070505
3.708000 0.070377
3.709000 0.070293
3.710000 0.070248
3.711000 0.070238
3.712000 0.070265
3.713000 0.070230
3.714000 0.070120
3.715000 0.069972
3.716000 0.069811
3.717000 0.069664
3.718000 0.069561
3.719000 0.069520
3.720000 0.069545
3.721000 0.069629
3.722000 0.069747
3.723000 0.069842
3.724000 0.069913
3.725000 0.069951
3.726000 0.069949
3.727000 0.069905
3.728000 0.069853
3.729000 0.069870
3.730000 0.069954
3.731000 0.070032
3.732000 0.070093
3.733000 0.070128
3.734000 0.070133
3.735000 0.070112
3.736000 0.070076
3.737000 0.070042
3.738000 0.070026
3.739000 0.070048
3.740000 0.070127
3.741000 0.070268
3.742000 0.070492
3.743000 0.070776
3.744000 0.071079
3.745000 0.071362
3.746000 0.071582
3.747000 0.071716
3.748000 0.071756
3.749000 0.071712
3.750000 0.071609
3.751000 0.071478
3.752000 0.071390
3.753000 0.071327
3.754000 0.071267
3.755000 0.071210
3.756000 0.071202
3.757000 0.071242
3.758000 0.071321
3.759000 0.071430
3.760000 0.071560
3.761000 0.071707
3.762000 0.071872
3.763000 0.072055
3.764000 0.072252
3.765000 0.072450
3.766000 0.072633
3.767000 0.072789
3.768000 0.072916
3.769000 0.073015
3.770000 0.073089
3.771000 0.073142
3.772000 0.073178
3.773000 0.073198
3.774000 0.073206
3.775000 0.073211
3.776000 0.073224
3.777000 0.073255
3.778000 0.073310
3.779000 0.073353
3.780000 0.073377
3.781000 0.073386
3.782000 0.073387
3.783000 0.073383
3.784000 0.073372
3.785000 0.073342
3.786000 0.073280
3.787000 0.073179
3.788000 0.073050
3.789000 0.072907
3.790000 0.072743
3.791000 0.072554
3.792000 0.072335
3.793000 0.072093
3.794000 0.071852
3.795000 0.071645
3.796000 0.071515
3.797000 0.071500
3.798000 0.071387
3.799000 0.071154
3.800000 0.070840
3.801000 0.070499
3.802000 0.070178
3.803000 0.069909
3.804000 0.069709
3.805000 0.069585
3.806000 0.069536
3.807000 0.069558
3.808000 0.069577
3.809000 0.069546
3.810000 0.069483
3.811000 0.069408
3.812000 0.069332
3.813000 0.069263
3.814000 0.069202
3.815000 0.069138
3.816000 0.069051
3.817000 0.068912
3.818000 0.068695
3.819000 0.068381
3.820000 0.067975
3.821000 0.067517
3.822000 0.067072
3.823000 0.066699
3.824000 0.066424
3.825000 0.066243
3.826000 0.066203
3.827000 0.066253
3.828000 0.066271
3.829000 0.066299
3.830000 0.066384
3.831000 0.066558
3.832000 0.066779
3.833000 0.066934
3.834000 0.067065
3.835000 0.067239
3.836000 0.067393
3.837000 0.067370
3.838000 0.067221
3.839000 0.067041
3.840000 0.066903
3.841000 0.066810
3.842000 0.066757
3.843000 0.066671
3.844000 0.066489
3.845000 0.066207
3.846000 0.065882
3.847000 0.065595
3.848000 0.065419
3.849000 0.065391
3.850000 0.065489
3.851000 0.065633
3.852000 0.065723
3.853000 0.065760
3.854000 0.065958
3.855000 0.066332
3.856000 0.066795
3.857000 0.067063
3.858000 0.067129
3.859000 0.067049
3.860000 0.066887
3.861000 0.066674
3.862000 0.066426
3.863000 0.066325
3.864000 0.066408
3.865000 0.066427
3.866000 0.066363
3.867000 0.066499
3.868000 0.066871
3.869000 0.067224
3.870000 0.067515
3.871000 0.067740
3.872000 0.067859
3.873000 0.067755
3.874000 0.067674
3.875000 0.067660
3.876000 0.067656
3.877000 0.067587
3.878000 0.067451
3.879000 0.067276
3.880000 0.067094
3.881000 0.066929
3.882000 0.066772
3.883000 0.066595
3.884000 0.066363
3.885000 0.066058
3.886000 0.065682
3.887000 0.065250
3.888000 0.064773
3.889000 0.064248
3.890000 0.063664
3.891000 0.063008
3.892000 0.062294
3.893000 0.061580
3.894000 0.061048
3.895000 0.060814
3.896000 0.060918
3.897000 0.060985
3.898000 0.060972
3.899000 0.061004
3.900000 0.061188
3.901000 0.061581
3.902000 0.062192
3.903000 0.062999
3.904000 0.063599
3.905000 0.063894
3.906000 0.063980
3.907000 0.064007
3.908000 0.064110
3.909000 0.064329
3.910000 0.064583
3.911000 0.064732
3.912000 0.064732
3.913000 0.064896
3.914000 0.065119
3.915000 0.065309
3.916000 0.065399
3.917000 0.065353
3.918000 0.065168
3.919000 0.064942
3.920000 0.064932
3.921000 0.065110
3.922000 0.065394
3.923000 0.065594
3.924000 0.065572
3.925000 0.065613
3.926000 0.065846
3.927000 0.066196
3.928000 0.066572
3.929000 0.066906
3.930000 0.067177
3.931000 0.067410
3.932000 0.067640
3.933000 0.067889
3.934000 0.068145
3.935000 0.068370
3.936000 0.068514
3.937000 0.068534
3.938000 0.068410
3.939000 0.068162
3.940000 0.068034
3.941000 0.067973
3.942000 0.067915
3.943000 0.067810
3.944000 0.067633
3.945000 0.067505
3.946000 0.067494
3.947000 0.067607
3.948000 0.067665
3.949000 0.067605
3.950000 0.067483
3.951000 0.067365
3.952000 0.067283
3.953000 0.067236
3.954000 0.067206
3.955000 0.067176
3.956000 0.067132
3.957000 0.067068
3.958000 0.066984
3.959000 0.066881
3.960000 0.066804
3.961000 0.066760
3.962000 0.066747
3.963000 0.066765
3.964000 0.066818
3.965000 0.066909
3.966000 0.067032
3.967000 0.067148
3.968000 0.067254
3.969000 0.067347
3.970000 0.067422
3.971000 0.067476
3.972000 0.067505
3.973000 0.067511
3.974000 0.067500
3.975000 0.067475
3.976000 0.067438
3.977000 0.067390
3.978000 0.067335
3.979000 0.067277
3.980000 0.067222
3.981000 0.067176
3.982000 0.067143
3.983000 0.067128
3.984000 0.067129
3.985000 0.067142
3.986000 0.067160
3.987000 0.067177
3.988000 0.067186
3.989000 0.067183
3.990000 0.067167
3.991000 0.067139
3.992000 0.067103
3.993000 0.067071
3.994000 0.067063
3.995000 0.067073
3.996000 0.067090
3.997000 0.067093
3.998000 0.067079
3.999000 0.067049
4.000000 0.067002
4.001000 0.066951
4.002000 0.066914
4.003000 0.066904
4.004000 0.066929
4.005000 0.066989
4.006000 0.067074
4.007000 0.067173
4.008000 0.067276
4.009000 0.067364
4.010000 0.067429
4.011000 0.067471
4.012000 0.067495
4.013000 0.067501
4.014000 0.067493
4.015000 0.067473
4.016000 0.067442
4.017000 0.067411
4.018000 0.067384
4.019000 0.067354
4.020000 0.067322
4.021000 0.067291
4.022000 0.067265
4.023000 0.067243
4.024000 0.067221
4.025000 0.067195
4.026000 0.067162
4.027000 0.067119
4.028000 0.067093
4.029000 0.067087
4.030000 0.067088
4.031000 0.067087
4.032000 0.067074
4.033000 0.067051
4.034000 0.067022
4.035000 0.066992
4.036000 0.066975
4.037000 0.066981
4.038000 0.067015
4.039000 0.067073
4.040000 0.067138
4.041000 0.067206
4.042000 0.067259
4.043000 0.067289
4.044000 0.067284
4.045000 0.067237
4.046000 0.067144
4.047000 0.067007
4.048000 0.066834
4.049000 0.066634
4.050000 0.066414
4.051000 0.066179
4.052000 0.065933
4.053000 0.065698
4.054000 0.065486
4.055000 0.065304
4.056000 0.065159
4.057000 0.065058
4.058000 0.065012
4.059000 0.065025
4.060000 0.065021
4.061000 0.064915
4.062000 0.064764
4.063000 0.064604
4.064000 0.064457
4.065000 0.064335
4.066000 0.064246
4.067000 0.064194
4.068000 0.064184
4.069000 0.064214
4.070000 0.064283
4.071000 0.064294
4.072000 0.064239
4.073000 0.064129
4.074000 0.063982
4.075000 0.063823
4.076000 0.063684
4.077000 0.063599
4.078000 0.063591
4.079000 0.063671
4.080000 0.063841
4.081000 0.063968
4.082000 0.064039
4.083000 0.064046
4.084000 0.063989
4.085000 0.063877
4.086000 0.063723
4.087000 0.063542
4.088000 0.063343
4.089000 0.063131
4.090000 0.062910
4.091000 0.062685
4.092000 0.062496
4.093000 0.062364
4.094000 0.062296
4.095000 0.062296
4.096000 0.062366
4.097000 0.062508
4.098000 0.062723
4.099000 0.063008
4.100000 0.063350
4.101000 0.063709
4.102000 0.064051
4.103000 0.064363
4.104000 0.064634
4.105000 0.064844
4.106000 0.064954
4.107000 0.064961
4.108000 0.064893
4.109000 0.064878
4.110000 0.064928
4.111000 0.065049
4.112000 0.065236
4.113000 0.065475
4.114000 0.065747
4.115000 0.066018
4.116000 0.066276
4.117000 0.066508
4.118000 0.066701
4.119000 0.066849
4.120000 0.066950
4.121000 0.066997
4.122000 0.066981
4.123000 0.066893
4.124000 0.066774
4.125000 0.066738
4.126000 0.066795
4.127000 0.066947
4.128000 0.067157
4.129000 0.067342
4.130000 0.067497
4.131000 0.067616
4.132000 0.067700
4.133000 0.067761
4.134000 0.067816
4.135000 0.067873
4.136000 0.067930
4.137000 0.067977
4.138000 0.068004
4.139000 0.067998
4.140000 0.067942
4.141000 0.067825
4.142000 0.067650
4.143000 0.067436
4.144000 0.067213
4.145000 0.067022
4.146000 0.066899
4.147000 0.066865
4.148000 0.066921
4.149000 0.067050
4.150000 0.067222
4.151000 0.067400
4.152000 0.067508
4.153000 0.067563
4.154000 0.067588
4.155000 0.067581
4.156000 0.067540
4.157000 0.067454
4.158000 0.067300
4.159000 0.067090
4.160000 0.066884
4.161000 0.066701
4.162000 0.066550
4.163000 0.066430
4.164000 0.066338
4.165000 0.066273
4.166000 0.066234
4.167000 0.066220
4.168000 0.066232
4.169000 0.066269
4.170000 0.066330
4.171000 0.066415
4.172000 0.066522
4.173000 0.066643
4.174000 0.066764
4.175000 0.066865
4.176000 0.066931
4.177000 0.066950
4.178000 0.066919
4.179000 0.066876
4.180000 0.066868
4.181000 0.066885
4.182000 0.066927
4.183000 0.066996
4.184000 0.067100
4.185000 0.067254
4.186000 0.067460
4.187000 0.067710
4.188000 0.067973
4.189000 0.068218
4.190000 0.068433
4.191000 0.068609
4.192000 0.068740
4.193000 0.068826
4.194000 0.068871
4.195000 0.068873
4.196000 0.068904
4.197000 0.069004
4.198000 0.069167
4.199000 0.069374
4.200000 0.069604
4.201000 0.069837
4.202000 0.070056
4.203000 0.070245
4.204000 0.070398
4.205000 0.070508
4.206000 0.070572
4.207000 0.070589
4.208000 0.070565
4.209000 0.070508
4.210000 0.070454
4.211000 0.070391
4.212000 0.070309
4.213000 0.070217
4.214000 0.070114
4.215000 0.070005
4.216000 0.069899
4.217000 0.069808
4.218000 0.069737
4.219000 0.069691
4.220000 0.069678
4.221000 0.069713
4.222000 0.069804
4.223000 0.069951
4.224000 0.070151
4.225000 0.070399
4.226000 0.070616
4.227000 0.070774
4.228000 0.070854
4.229000 0.070846
4.230000 0.070756
4.231000 0.070606
4.232000 0.070419
4.233000 0.070218
4.234000 0.070018
4.235000 0.069835
4.236000 0.069679
4.237000 0.069551
4.238000 0.069441
4.239000 0.069364
4.240000 0.069360
4.241000 0.069424
4.242000 0.069483
4.243000 0.069499
4.244000 0.069453
4.245000 0.069330
4.246000 0.069120
4.247000 0.068823
4.248000 0.068452
4.249000 0.068048
4.250000 0.067681
4.251000 0.067431
4.252000 0.067362
4.253000 0.067236
4.254000 0.066957
4.255000 0.066600
4.256000 0.066236
4.257000 0.065910
4.258000 0.065636
4.259000 0.065414
4.260000 0.065257
4.261000 0.065195
4.262000 0.065249
4.263000 0.065255
4.264000 0.065174
4.265000 0.065104
4.266000 0.065072
4.267000 0.064891
4.268000 0.064594
4.269000 0.064264
4.270000 0.063997
4.271000 0.063873
4.272000 0.063931
4.273000 0.064133
4.274000 0.064301
4.275000 0.064478
4.276000 0.064477
4.277000 0.064229
4.278000 0.063722
4.279000 0.062996
4.280000 0.062136
4.281000 0.061239
4.282000 0.060334
4.283000 0.059446
4.284000 0.058593
4.285000 0.057791
4.286000 0.057050
4.287000 0.056420
4.288000 0.055897
4.289000 0.055463
4.290000 0.055143
4.291000 0.054981
4.292000 0.054979
4.293000 0.055110
4.294000 0.055243
4.295000 0.055310
4.296000 0.055281
4.297000 0.055116
4.298000 0.054762
4.299000 0.054357
4.300000 0.053894
4.301000 0.053389
4.302000 0.052892
4.303000 0.052471
4.304000 0.052181
4.305000 0.052047
4.306000 0.052037
4.307000 0.052076
4.308000 0.052083
4.309000 0.052041
4.310000 0.052019
4.311000 0.052147
4.312000 0.052464
4.313000 0.052661
4.314000 0.052840
4.315000 0.053082
4.316000 0.053434
4.317000 0.053920
4.318000 0.054533
4.319000 0.055162
4.320000 0.055535
4.321000 0.055665
4.322000 0.055614
4.323000 0.055495
4.324000 0.055447
4.325000 0.055309
4.326000 0.054974
4.327000 0.054533
4.328000 0.054113
4.329000 0.053784
4.330000 0.053505
4.331000 0.053158
4.332000 0.052697
4.333000 0.052419
4.334000 0.052306
4.335000 0.052328
4.336000 0.052466
4.337000 0.052716
4.338000 0.053080
4.339000 0.053542
4.340000 0.053885
4.341000 0.054191
4.342000 0.054516
4.343000 0.054843
4.344000 0.055101
4.345000 0.055079
4.346000 0.055243
4.347000 0.055676
4.348000 0.056329
4.349000 0.057119
4.350000 0.057945
4.351000 0.058704
4.352000 0.059338
4.353000 0.059869
4.354000 0.060388
4.355000 0.060993
4.356000 0.061747
4.357000 0.062646
4.358000 0.063630
4.359000 0.064611
4.360000 0.065460
4.361000 0.066101
4.362000 0.066489
4.363000 0.066604
4.364000 0.066573
4.365000 0.066774
4.366000 0.067196
4.367000 0.067822
4.368000 0.068620
4.369000 0.069535
4.370000 0.070495
4.371000 0.071424
4.372000 0.072243
4.373000 0.072878
4.374000 0.073297
4.375000 0.073536
4.376000 0.073675
4.377000 0.073810
4.378000 0.074004
4.379000 0.074240
4.380000 0.074434
4.381000 0.074486
4.382000 0.074428
4.383000 0.074583
4.384000 0.074891
4.385000 0.075258
4.386000 0.075594
4.387000 0.075844
4.388000 0.076049
4.389000 0.076306
4.390000 0.076714
4.391000 0.077310
4.392000 0.078051
4.393000 0.078845
4.394000 0.079582
4.395000 0.080193
4.396000 0.080645
4.397000 0.080939
4.398000 0.081092
4.399000 0.081129
4.400000 0.081183
4.401000 0.081326
4.402000 0.081528
4.403000 0.081759
4.404000 0.081989
4.405000 0.082191
4.406000 0.082347
4.407000 0.082455
4.408000 0.082520
4.409000 0.082560
4.410000 0.082596
4.411000 0.082650
4.412000 0.082745
4.413000 0.082900
4.414000 0.083126
4.415000 0.083426
4.416000 0.083798
4.417000 0.084231
4.418000 0.084712
4.419000 0.085213
4.420000 0.085684
4.421000 0.086082
4.422000 0.086388
4.423000 0.086613
4.424000 0.086783
4.425000 0.086920
4.426000 0.087032
4.427000 0.087126
4.428000 0.087186
4.429000 0.087233
4.430000 0.087301
4.431000 0.087418
4.432000 0.087590
4.433000 0.087799
4.434000 0.088023
4.435000 0.088217
4.436000 0.088315
4.437000 0.088279
4.438000 0.088425
4.439000 0.088734
4.440000 0.089156
4.441000 0.089637
4.442000 0.090132
4.443000 0.090613
4.444000 0.091057
4.445000 0.091450
4.446000 0.091780
4.447000 0.092036
4.448000 0.092212
4.449000 0.092310
4.450000 0.092342
4.451000 0.092338
4.452000 0.092366
4.453000 0.092396
4.454000 0.092408
4.455000 0.092399
4.456000 0.092370
4.457000 0.092325
4.458000 0.092271
4.459000 0.092222
4.460000 0.092191
4.461000 0.092191
4.462000 0.092177
4.463000 0.092127
4.464000 0.092047
4.465000 0.091954
4.466000 0.091868
4.467000 0.091803
4.468000 0.091764
4.469000 0.091751
4.470000 0.091764
4.471000 0.091797
4.472000 0.091847
4.473000 0.091908
4.474000 0.091973
4.475000 0.092033
4.476000 0.092075
4.477000 0.092085
4.478000 0.092054
4.479000 0.091986
4.480000 0.091892
4.481000 0.091781
4.482000 0.091669
4.483000 0.091574
4.484000 0.091511
4.485000 0.091483
4.486000 0.091488
4.487000 0.091515
4.488000 0.091553
4.489000 0.091593
4.490000 0.091631
4.491000 0.091668
4.492000 0.091674
4.493000 0.091639
4.494000 0.091563
4.495000 0.091443
4.496000 0.091283
4.497000 0.091080
4.498000 0.090827
4.499000 0.090521
4.500000 0.090174
4.501000 0.089820
4.502000 0.089487
4.503000 0.089196
4.504000 0.088967
4.505000 0.088816
4.506000 0.088746
4.507000 0.088753
4.508000 0.088813
4.509000 0.088808
4.510000 0.088741
4.511000 0.088615
4.512000 0.088439
4.513000 0.088222
4.514000 0.087977
4.515000 0.087714
4.516000 0.087444
4.517000 0.087180
4.518000 0.086939
4.519000 0.086726
4.520000 0.086548
4.521000 0.086415
4.522000 0.086341
4.523000 0.086336
4.524000 0.086372
4.525000 0.086344
4.526000 0.086260
4.527000 0.086130
4.528000 0.085965
4.529000 0.085777
4.530000 0.085575
4.531000 0.085370
4.532000 0.085171
4.533000 0.084989
4.534000 0.084830
4.535000 0.084704
4.536000 0.084610
4.537000 0.084546
4.538000 0.084506
4.539000 0.084485
4.540000 0.084475
4.541000 0.084465
4.542000 0.084441
4.543000 0.084395
4.544000 0.084324
4.545000 0.084228
4.546000 0.084108
4.547000 0.083961
4.548000 0.083795
4.549000 0.083629
4.550000 0.083485
4.551000 0.083384
4.552000 0.083329
4.553000 0.083313
4.554000 0.083325
4.555000 0.083357
4.556000 0.083356
4.557000 0.083329
4.558000 0.083319
4.559000 0.083321
4.560000 0.083281
4.561000 0.083190
4.562000 0.083076
4.563000 0.082956
4.564000 0.082838
4.565000 0.082724
4.566000 0.082614
4.567000 0.082502
4.568000 0.082386
4.569000 0.082265
4.570000 0.082145
4.571000 0.082028
4.572000 0.081922
4.573000 0.081832
4.574000 0.081765
4.575000 0.081731
4.576000 0.081738
4.577000 0.081795
4.578000 0.081907
4.579000 0.082036
4.580000 0.082135
4.581000 0.082210
4.582000 0.082258
4.583000 0.082271
4.584000 0.082240
4.585000 0.082157
4.586000 0.082024
4.587000 0.081849
4.588000 0.081642
4.589000 0.081414
4.590000 0.081178
4.591000 0.080993
4.592000 0.080891
4.593000 0.080876
4.594000 0.080948
4.595000 0.081104
4.596000 0.081266
4.597000 0.081381
4.598000 0.081443
4.599000 0.081456
4.600000 0.081427
4.601000 0.081367
4.602000 0.081292
4.603000 0.081217
4.604000 0.081155
4.605000 0.081114
4.606000 0.081103
4.607000 0.081129
4.608000 0.081193
4.609000 0.081293
4.610000 0.081399
4.611000 0.081526
4.612000 0.081683
4.613000 0.081850
4.614000 0.082013
4.615000 0.082151
4.616000 0.082249
4.617000 0.082299
4.618000 0.082308
4.619000 0.082287
4.620000 0.082242
4.621000 0.082177
4.622000 0.082093
4.623000 0.081997
4.624000 0.081896
4.625000 0.081797
4.626000 0.081717
4.627000 0.081669
4.628000 0.081657
4.629000 0.081678
4.630000 0.081718
4.631000 0.081763
4.632000 0.081795
4.633000 0.081803
4.634000 0.081785
4.635000 0.081747
4.636000 0.081699
4.637000 0.081661
4.638000 0.081663
4.639000 0.081700
4.640000 0.081739
4.641000 0.081790
4.642000 0.081857
4.643000 0.081938
4.644000 0.082022
4.645000 0.082093
4.646000 0.082136
4.647000 0.082143
4.648000 0.082111
4.649000 0.082042
4.650000 0.081946
4.651000 0.081918
4.652000 0.081977
4.653000 0.082085
4.654000 0.082186
4.655000 0.082274
4.656000 0.082344
4.657000 0.082399
4.658000 0.082448
4.659000 0.082503
4.660000 0.082568
4.661000 0.082643
4.662000 0.082722
4.663000 0.082800
4.664000 0.082869
4.665000 0.082924
4.666000 0.082935
4.667000 0.082899
4.668000 0.082849
4.669000 0.082764
4.670000 0.082625
4.671000 0.082461
4.672000 0.082306
4.673000 0.082166
4.674000 0.082044
4.675000 0.081941
4.676000 0.081866
4.677000 0.081832
4.678000 0.081853
4.679000 0.081932
4.680000 0.082027
4.681000 0.082077
4.682000 0.082077
4.683000 0.082030
4.684000 0.081985
4.685000 0.082017
4.686000 0.082127
4.687000 0.082264
4.688000 0.082418
4.689000 0.082595
4.690000 0.082762
4.691000 0.082872
4.692000 0.082916
4.693000 0.082901
4.694000 0.082844
4.695000 0.082765
4.696000 0.082692
4.697000 0.082660
4.698000 0.082704
4.699000 0.082664
4.700000 0.082535
4.701000 0.082327
4.702000 0.082053
4.703000 0.081726
4.704000 0.081362
4.705000 0.080980
4.706000 0.080597
4.707000 0.080229
4.708000 0.079884
4.709000 0.079562
4.710000 0.079243
4.711000 0.078970
4.712000 0.078720
4.713000 0.078430
4.714000 0.078053
4.715000 0.077575
4.716000 0.077012
4.717000 0.076393
4.718000 0.075755
4.719000 0.075141
4.720000 0.074597
4.721000 0.074206
4.722000 0.074002
4.723000 0.073963
4.724000 0.074037
4.725000 0.074091
4.726000 0.074087
4.727000 0.073998
4.728000 0.073901
4.729000 0.073797
4.730000 0.073739
4.731000 0.073821
4.732000 0.074059
4.733000 0.074141
4.734000 0.074095
4.735000 0.073985
4.736000 0.073866
4.737000 0.073762
4.738000 0.073662
4.739000 0.073541
4.740000 0.073367
4.741000 0.073113
4.742000 0.072793
4.743000 0.072484
4.744000 0.072289
4.745000 0.072316
4.746000 0.072070
4.747000 0.071506
4.748000 0.070712
4.749000 0.069810
4.750000 0.068886
4.751000 0.068023
4.752000 0.067278
4.753000 0.066644
4.754000 0.066053
4.755000 0.065424
4.756000 0.064706
4.757000 0.063900
4.758000 0.063055
4.759000 0.062236
4.760000 0.061508
4.761000 0.060920
4.762000 0.060510
4.763000 0.060330
4.764000 0.060326
4.765000 0.060102
4.766000 0.059654
4.767000 0.058984
4.768000 0.058118
4.769000 0.057117
4.770000 0.056064
4.771000 0.055047
4.772000 0.054150
4.773000 0.053444
4.774000 0.052953
4.775000 0.052634
4.776000 0.052404
4.777000 0.052201
4.778000 0.051960
4.779000 0.051692
4.780000 0.051473
4.781000 0.051404
4.782000 0.051463
4.783000 0.051335
4.784000 0.051090
4.785000 0.050823
4.786000 0.050629
4.787000 0.050556
4.788000 0.050555
4.789000 0.050500
4.790000 0.050264
4.791000 0.049780
4.792000 0.049078
4.793000 0.048316
4.794000 0.047661
4.795000 0.047157
4.796000 0.046817
4.797000 0.046630
4.798000 0.046574
4.799000 0.046634
4.800000 0.046693
4.801000 0.046701
4.802000 0.046703
4.803000 0.046731
4.804000 0.046793
4.805000 0.046878
4.806000 0.046970
4.807000 0.047051
4.808000 0.047101
4.809000 0.047092
4.810000 0.046998
4.811000 0.046948
4.812000 0.046973
4.813000 0.047059
4.814000 0.047198
4.815000 0.047388
4.816000 0.047617
4.817000 0.047856
4.818000 0.048063
4.819000 0.048215
4.820000 0.048322
4.821000 0.048415
4.822000 0.048534
4.823000 0.048714
4.824000 0.048980
4.825000 0.049326
4.826000 0.049701
4.827000 0.050014
4.828000 0.050156
4.829000 0.050141
4.830000 0.050407
4.831000 0.050874
4.832000 0.051451
4.833000 0.052067
4.834000 0.052661
4.835000 0.053202
4.836000 0.053710
4.837000 0.054207
4.838000 0.054379
4.839000 0.054257
4.840000 0.053897
4.841000 0.053355
4.842000 0.052901
4.843000 0.052596
4.844000 0.052465
4.845000 0.052514
4.846000 0.052743
4.847000 0.053151
4.848000 0.053740
4.849000 0.054496
4.850000 0.055388
4.851000 0.056352
4.852000 0.057271
4.853000 0.058106
4.854000 0.058835
4.855000 0.059449
4.856000 0.059963
4.857000 0.060399
4.858000 0.060785
4.859000 0.061147
4.860000 0.061500
4.861000 0.061819
4.862000 0.062040
4.863000 0.062089
4.864000 0.062207
4.865000 0.062527
4.866000 0.063015
4.867000 0.063644
4.868000 0.064400
4.869000 0.065281
4.870000 0.066271
4.871000 0.067318
4.872000 0.068349
4.873000 0.069284
4.874000 0.070059
4.875000 0.070651
4.876000 0.071076
4.877000 0.071368
4.878000 0.071563
4.879000 0.071684
4.880000 0.071731
4.881000 0.071695
4.882000 0.071652
4.883000 0.071692
4.884000 0.071817
4.885000 0.072027
4.886000 0.072303
4.887000 0.072594
4.888000 0.072833
4.889000 0.072965
4.890000 0.072965
4.891000 0.073003
4.892000 0.073140
4.893000 0.073326
4.894000 0.073521
4.895000 0.073702
4.896000 0.073848
4.897000 0.073951
4.898000 0.074012
4.899000 0.074034
4.900000 0.074040
4.901000 0.074068
4.902000 0.074120
4.903000 0.074204
4.904000 0.074332
4.905000 0.074510
4.906000 0.074724
4.907000 0.074932
4.908000 0.075085
4.909000 0.075139
4.910000 0.075078
4.911000 0.075168
4.912000 0.075398
4.913000 0.075725
4.914000 0.076082
4.915000 0.076397
4.916000 0.076623
4.917000 0.076751
4.918000 0.076814
4.919000 0.076884
4.920000 0.077025
4.921000 0.077259
4.922000 0.077563
4.923000 0.077892
4.924000 0.078198
4.925000 0.078447
4.926000 0.078620
4.927000 0.078715
4.928000 0.078738
4.929000 0.078703
4.930000 0.078699
4.931000 0.078749
4.932000 0.078845
4.933000 0.078978
4.934000 0.079134
4.935000 0.079297
4.936000 0.079451
4.937000 0.079589
4.938000 0.079705
4.939000 0.079802
4.940000 0.079883
4.941000 0.079949
4.942000 0.080001
4.943000 0.080041
4.944000 0.080070
4.945000 0.080089
4.946000 0.080100
4.947000 0.080104
4.948000 0.080099
4.949000 0.080082
4.950000 0.080052
4.951000 0.080010
4.952000 0.079964
4.953000 0.079919
4.954000 0.079882
4.955000 0.079852
4.956000 0.079836
4.957000 0.079842
4.958000 0.079849
4.959000 0.079852
4.960000 0.079857
4.961000 0.079870
4.962000 0.079864
4.963000 0.079828
4.964000 0.079774
4.965000 0.079727
4.966000 0.079707
4.967000 0.079726
4.968000 0.079782
4.969000 0.079868
4.970000 0.079967
4.971000 0.080064
4.972000 0.080142
4.973000 0.080193
4.974000 0.080215
4.975000 0.080212
4.976000 0.080184
4.977000 0.080132
4.978000 0.080059
4.979000 0.079967
4.980000 0.079861
4.981000 0.079745
4.982000 0.079625
4.983000 0.079505
4.984000 0.079391
4.985000 0.079289
4.986000 0.079204
4.987000 0.079142
4.988000 0.079106
4.989000 0.079097
4.990000 0.079116
4.991000 0.079114
4.992000 0.079069
4.993000 0.078981
4.994000 0.078851
4.995000 0.078683
4.996000 0.078481
4.997000 0.078267
4.998000 0.078050
4.999000 0.077838
5.000000 0.077641
5.001000 0.077468
5.002000 0.077322
5.003000 0.077205
5.004000 0.077117
5.005000 0.077059
5.006000 0.077024
5.007000 0.076999
5.008000 0.076971
5.009000 0.076927
5.010000 0.076855
5.011000 0.076739
5.012000 0.076587
5.013000 0.076450
5.014000 0.076334
5.015000 0.076241
5.016000 0.076167
5.017000 0.076097
5.018000 0.076022
5.019000 0.075939
5.020000 0.075852
5.021000 0.075763
5.022000 0.075670
5.023000 0.075567
5.024000 0.075446
5.025000 0.075303
5.026000 0.075138
5.027000 0.074962
5.028000 0.074789
5.029000 0.074633
5.030000 0.074504
5.031000 0.074412
5.032000 0.074361
5.033000 0.074349
5.034000 0.074362
5.035000 0.074386
5.036000 0.074401
5.037000 0.074406
5.038000 0.074431
5.039000 0.074465
5.040000 0.074490
5.041000 0.074487
5.042000 0.074443
5.043000 0.074359
5.044000 0.074240
5.045000 0.074097
5.046000 0.073934
5.047000 0.073846
5.048000 0.073848
5.049000 0.073940
5.050000 0.074114
5.051000 0.074280
5.052000 0.074422
5.053000 0.074529
5.054000 0.074595
5.055000 0.074619
5.056000 0.074598
5.057000 0.074527
5.058000 0.074400
5.059000 0.074208
5.060000 0.074018
5.061000 0.073927
5.062000 0.073948
5.063000 0.074079
5.064000 0.074311
5.065000 0.074620
5.066000 0.074976
5.067000 0.075333
5.068000 0.075634
5.069000 0.075889
5.070000 0.076112
5.071000 0.076282
5.072000 0.076370
5.073000 0.076379
5.074000 0.076319
5.075000 0.076256
5.076000 0.076241
5.077000 0.076266
5.078000 0.076313
5.079000 0.076368
5.080000 0.076427
5.081000 0.076495
5.082000 0.076586
5.083000 0.076708
5.084000 0.076825
5.085000 0.076875
5.086000 0.076855
5.087000 0.076765
5.088000 0.076615
5.089000 0.076435
5.090000 0.076298
5.091000 0.076212
5.092000 0.076177
5.093000 0.076184
5.094000 0.076224
5.095000 0.076291
5.096000 0.076385
5.097000 0.076499
5.098000 0.076620
5.099000 0.076736
5.100000 0.076830
5.101000 0.076883
5.102000 0.076880
5.103000 0.076814
5.104000 0.076706
5.105000 0.076633
5.106000 0.076587
5.107000 0.076560
5.108000 0.076556
5.109000 0.076586
5.110000 0.076665
5.111000 0.076711
5.112000 0.076686
5.113000 0.076591
5.114000 0.076441
5.115000 0.076258
5.116000 0.076079
5.117000 0.075972
5.118000 0.075938
5.119000 0.075970
5.120000 0.076056
5.121000 0.076135
5.122000 0.076179
5.123000 0.076189
5.124000 0.076172
5.125000 0.076150
5.126000 0.076152
5.127000 0.076200
5.128000 0.076187
5.129000 0.076116
5.130000 0.075997
5.131000 0.075837
5.132000 0.075631
5.133000 0.075368
5.134000 0.075041
5.135000 0.074649
5.136000 0.074208
5.137000 0.073799
5.138000 0.073450
5.139000 0.073170
5.140000 0.072952
5.141000 0.072788
5.142000 0.072668
5.143000 0.072577
5.144000 0.072498
5.145000 0.072463
5.146000 0.072507
5.147000 0.072639
5.148000 0.072859
5.149000 0.073121
5.150000 0.073395
5.151000 0.073651
5.152000 0.073869
5.153000 0.074035
5.154000 0.074141
5.155000 0.074184
5.156000 0.074163
5.157000 0.074088
5.158000 0.073978
5.159000 0.073865
5.160000 0.073789
5.161000 0.073781
5.162000 0.073859
5.163000 0.073990
5.164000 0.074095
5.165000 0.074174
5.166000 0.074221
5.167000 0.074236
5.168000 0.074223
5.169000 0.074182
5.170000 0.074118
5.171000 0.074096
5.172000 0.074107
5.173000 0.074148
5.174000 0.074216
5.175000 0.074305
5.176000 0.074410
5.177000 0.074482
5.178000 0.074519
5.179000 0.074515
5.180000 0.074468
5.181000 0.074390
5.182000 0.074318
5.183000 0.074238
5.184000 0.074138
5.185000 0.074012
5.186000 0.073857
5.187000 0.073679
5.188000 0.073495
5.189000 0.073331
5.190000 0.073223
5.191000 0.073204
5.192000 0.073288
5.193000 0.073400
5.194000 0.073461
5.195000 0.073499
5.196000 0.073532
5.197000 0.073566
5.198000 0.073592
5.199000 0.073591
5.200000 0.073533
5.201000 0.073381
5.202000 0.073204
5.203000 0.072988
5.204000 0.072731
5.205000 0.072446
5.206000 0.072160
5.207000 0.071901
5.208000 0.071695
5.209000 0.071572
5.210000 0.071565
5.211000 0.071514
5.212000 0.071359
5.213000 0.071093
5.214000 0.070713
5.215000 0.070220
5.216000 0.069625
5.217000 0.068960
5.218000 0.068275
5.219000 0.067620
5.220000 0.067034
5.221000 0.066527
5.222000 0.066075
5.223000 0.065631
5.224000 0.065163
5.225000 0.064669
5.226000 0.064198
5.227000 0.063831
5.228000 0.063653
5.229000 0.063614
5.230000 0.063243
5.231000 0.062615
5.232000 0.061826
5.233000 0.060949
5.234000 0.060113
5.235000 0.059402
5.236000 0.058861
5.237000 0.058497
5.238000 0.058294
5.239000 0.058228
5.240000 0.058277
5.241000 0.058424
5.242000 0.058432
5.243000 0.058263
5.244000 0.057920
5.245000 0.057450
5.246000 0.056900
5.247000 0.056259
5.248000 0.055518
5.249000 0.054681
5.250000 0.053771
5.251000 0.052834
5.252000 0.051930
5.253000 0.051125
5.254000 0.050456
5.255000 0.049931
5.256000 0.049528
5.257000 0.049206
5.258000 0.048915
5.259000 0.048613
5.260000 0.048282
5.261000 0.047959
5.262000 0.047748
5.263000 0.047718
5.264000 0.047627
5.265000 0.047344
5.266000 0.046917
5.267000 0.046393
5.268000 0.045799
5.269000 0.045148
5.270000 0.044459
5.271000 0.043777
5.272000 0.043161
5.273000 0.042650
5.274000 0.042240
5.275000 0.041874
5.276000 0.041466
5.277000 0.041237
5.278000 0.041300
5.279000 0.041562
5.280000 0.041939
5.281000 0.042371
5.282000 0.042738
5.283000 0.042933
5.284000 0.042955
5.285000 0.042814
5.286000 0.042537
5.287000 0.042190
5.288000 0.041866
5.289000 0.041670
5.290000 0.041618
5.291000 0.041564
5.292000 0.041430
5.293000 0.041238
5.294000 0.041087
5.295000 0.041042
5.296000 0.041113
5.297000 0.041262
5.298000 0.041413
5.299000 0.041472
5.300000 0.041559
5.301000 0.041772
5.302000 0.042031
5.303000 0.042231
5.304000 0.042288
5.305000 0.042169
5.306000 0.041902
5.307000 0.041689
5.308000 0.041566
5.309000 0.041523
5.310000 0.041524
5.311000 0.041484
5.312000 0.041464
5.313000 0.041521
5.314000 0.041712
5.315000 0.042064
5.316000 0.042561
5.317000 0.043147
5.318000 0.043732
5.319000 0.044218
5.320000 0.044533
5.321000 0.044650
5.322000 0.044584
5.323000 0.044377
5.324000 0.044071
5.325000 0.043823
5.326000 0.043755
5.327000 0.043856
5.328000 0.044087
5.329000 0.044388
5.330000 0.044629
5.331000 0.044770
5.332000 0.044825
5.333000 0.044830
5.334000 0.044827
5.335000 0.044863
5.336000 0.044983
5.337000 0.045214
5.338000 0.045564
5.339000 0.046025
5.340000 0.046570
5.341000 0.047161
5.342000 0.047738
5.343000 0.048219
5.344000 0.048509
5.345000 0.048527
5.346000 0.048656
5.347000 0.049001
5.348000 0.049469
5.349000 0.049968
5.350000 0.050412
5.351000 0.050747
5.352000 0.050962
5.353000 0.051077
5.354000 0.051130
5.355000 0.051155
5.356000 0.051167
5.357000 0.051175
5.358000 0.051199
5.359000 0.051253
5.360000 0.051340
5.361000 0.051458
5.362000 0.051591
5.363000 0.051710
5.364000 0.051762
5.365000 0.051765
5.366000 0.051854
5.367000 0.052033
5.368000 0.052306
5.369000 0.052673
5.370000 0.053118
5.371000 0.053602
5.372000 0.054060
5.373000 0.054420
5.374000 0.054619
5.375000 0.054631
5.376000 0.054616
5.377000 0.054741
5.378000 0.054936
5.379000 0.055137
5.380000 0.055298
5.381000 0.055401
5.382000 0.055448
5.383000 0.055447
5.384000 0.055430
5.385000 0.055437
5.386000 0.055427
5.387000 0.055459
5.388000 0.055597
5.389000 0.055839
5.390000 0.056146
5.391000 0.056461
5.392000 0.056733
5.393000 0.056930
5.394000 0.057056
5.395000 0.057147
5.396000 0.057256
5.397000 0.057404
5.398000 0.057596
5.399000 0.057804
5.400000 0.057990
5.401000 0.058126
5.402000 0.058200
5.403000 0.058216
5.404000 0.058184
5.405000 0.058134
5.406000 0.058082
5.407000 0.058020
5.408000 0.057963
5.409000 0.057934
5.410000 0.057938
5.411000 0.057977
5.412000 0.058032
5.413000 0.058047
5.414000 0.058019
5.415000 0.057953
5.416000 0.057860
5.417000 0.057759
5.418000 0.057677
5.419000 0.057615
5.420000 0.057571
5.421000 0.057544
5.422000 0.057531
5.423000 0.057531
5.424000 0.057544
5.425000 0.057568
5.426000 0.057607
5.427000 0.057660
5.428000 0.057729
5.429000 0.057813
5.430000 0.057910
5.431000 0.058012
5.432000 0.058111
5.433000 0.058206
5.434000 0.058304
5.435000 0.058414
5.436000 0.058543
5.437000 0.058682
5.438000 0.058775
5.439000 0.058823
5.440000 0.058833
5.441000 0.058820
5.442000 0.058797
5.443000 0.058770
5.444000 0.058744
5.445000 0.058721
5.446000 0.058730
5.447000 0.058723
5.448000 0.058683
5.449000 0.058601
5.450000 0.058479
5.451000 0.058324
5.452000 0.058141
5.453000 0.057943
5.454000 0.057741
5.455000 0.057552
5.456000 0.057386
5.457000 0.057258
5.458000 0.057178
5.459000 0.057155
5.460000 0.057129
5.461000 0.057007
5.462000 0.056812
5.463000 0.056550
5.464000 0.056238
5.465000 0.055900
5.466000 0.055562
5.467000 0.055246
5.468000 0.054968
5.469000 0.054733
5.470000 0.054542
5.471000 0.054395
5.472000 0.054293
5.473000 0.054240
5.474000 0.054236
5.475000 0.054225
5.476000 0.054159
5.477000 0.054046
5.478000 0.053912
5.479000 0.053770
5.480000 0.053634
5.481000 0.053510
5.482000 0.053401
5.483000 0.053301
5.484000 0.053206
5.485000 0.053112
5.486000 0.053019
5.487000 0.052976
5.488000 0.052991
5.489000 0.053043
5.490000 0.053065
5.491000 0.053054
5.492000 0.053015
5.493000 0.052957
5.494000 0.052891
5.495000 0.052819
5.496000 0.052740
5.497000 0.052648
5.498000 0.052543
5.499000 0.052420
5.500000 0.052283
5.501000 0.052160
5.502000 0.052105
5.503000 0.052126
5.504000 0.052200
5.505000 0.052244
5.506000 0.052263
5.507000 0.052264
5.508000 0.052255
5.509000 0.052238
5.510000 0.052210
5.511000 0.052166
5.512000 0.052101
5.513000 0.052044
5.514000 0.052051
5.515000 0.052138
5.516000 0.052294
5.517000 0.052459
5.518000 0.052626
5.519000 0.052793
5.520000 0.052961
5.521000 0.053131
5.522000 0.053305
5.523000 0.053484
5.524000 0.053665
5.525000 0.053842
5.526000 0.054006
5.527000 0.054146
5.528000 0.054260
5.529000 0.054345
5.530000 0.054401
5.531000 0.054423
5.532000 0.054407
5.533000 0.054355
5.534000 0.054312
5.535000 0.054320
5.536000 0.054373
5.537000 0.054406
5.538000 0.054413
5.539000 0.054410
5.540000 0.054413
5.541000 0.054437
5.542000 0.054493
5.543000 0.054591
5.544000 0.054740
5.545000 0.054901
5.546000 0.055026
5.547000 0.055098
5.548000 0.055104
5.549000 0.055055
5.550000 0.054975
5.551000 0.054890
5.552000 0.054820
5.553000 0.054772
5.554000 0.054745
5.555000 0.054734
5.556000 0.054732
5.557000 0.054733
5.558000 0.054726
5.559000 0.054696
5.560000 0.054635
5.561000 0.054579
5.562000 0.054519
5.563000 0.054452
5.564000 0.054378
5.565000 0.054308
5.566000 0.054255
5.567000 0.054228
5.568000 0.054228
5.569000 0.054253
5.570000 0.054288
5.571000 0.054262
5.572000 0.054198
5.573000 0.054135
5.574000 0.054080
5.575000 0.054044
5.576000 0.054036
5.577000 0.054067
5.578000 0.054148
5.579000 0.054296
5.580000 0.054527
5.581000 0.054829
5.582000 0.055157
5.583000 0.055508
5.584000 0.055875
5.585000 0.056241
5.586000 0.056583
5.587000 0.056878
5.588000 0.057103
5.589000 0.057240
5.590000 0.057277
5.591000 0.057207
5.592000 0.057110
5.593000 0.057077
5.594000 0.057093
5.595000 0.057141
5.596000 0.057207
5.597000 0.057284
5.598000 0.057371
5.599000 0.057473
5.600000 0.057600
5.601000 0.057758
5.602000 0.057848
5.603000 0.057860
5.604000 0.057801
5.605000 0.057733
5.606000 0.057762
5.607000 0.057882
5.608000 0.058057
5.609000 0.058228
5.610000 0.058334
5.611000 0.058365
5.612000 0.058352
5.613000 0.058410
5.614000 0.058526
5.615000 0.058683
5.616000 0.058860
5.617000 0.059041
5.618000 0.059211
5.619000 0.059366
5.620000 0.059504
5.621000 0.059628
5.622000 0.059742
5.623000 0.059851
5.624000 0.059936
5.625000 0.059986
5.626000 0.060000
5.627000 0.059988
5.628000 0.059962
5.629000 0.059940
5.630000 0.059952
5.631000 0.059978
5.632000 0.060017
5.633000 0.060090
5.634000 0.060164
5.635000 0.060240
5.636000 0.060327
5.637000 0.060438
5.638000 0.060583
5.639000 0.060767
5.640000 0.060990
5.641000 0.061241
5.642000 0.061503
5.643000 0.061753
5.644000 0.061967
5.645000 0.062102
5.646000 0.062137
5.647000 0.062102
5.648000 0.062110
5.649000 0.062165
5.650000 0.062250
5.651000 0.062339
5.652000 0.062410
5.653000 0.062447
5.654000 0.062437
5.655000 0.062380
5.656000 0.062282
5.657000 0.062163
5.658000 0.062089
5.659000 0.062070
5.660000 0.062101
5.661000 0.062162
5.662000 0.062208
5.663000 0.062243
5.664000 0.062267
5.665000 0.062277
5.666000 0.062260
5.667000 0.062196
5.668000 0.062070
5.669000 0.061872
5.670000 0.061598
5.671000 0.061251
5.672000 0.060851
5.673000 0.060443
5.674000 0.060098
5.675000 0.059894
5.676000 0.059898
5.677000 0.059855
5.678000 0.059616
5.679000 0.059250
5.680000 0.058834
5.681000 0.058430
5.682000 0.058075
5.683000 0.057785
5.684000 0.057559
5.685000 0.057393
5.686000 0.057293
5.687000 0.057258
5.688000 0.057259
5.689000 0.057255
5.690000 0.057263
5.691000 0.057261
5.692000 0.057260
5.693000 0.057288
5.694000 0.057296
5.695000 0.057251
5.696000 0.057160
5.697000 0.057062
5.698000 0.057025
5.699000 0.057123
5.700000 0.057205
5.701000 0.057106
5.702000 0.056896
5.703000 0.056664
5.704000 0.056488
5.705000 0.056405
5.706000 0.056412
5.707000 0.056356
5.708000 0.056258
5.709000 0.056185
5.710000 0.056185
5.711000 0.056081
5.712000 0.055822
5.713000 0.055400
5.714000 0.054829
5.715000 0.054151
5.716000 0.053427
5.717000 0.052716
5.718000 0.052064
5.719000 0.051510
5.720000 0.051076
5.721000 0.050777
5.722000 0.050625
5.723000 0.050628
5.724000 0.050790
5.725000 0.050987
5.726000 0.051100
5.727000 0.051122
5.728000 0.051062
5.729000 0.050956
5.730000 0.050837
5.731000 0.050722
5.732000 0.050600
5.733000 0.050474
5.734000 0.050395
5.735000 0.050332
5.736000 0.050251
5.737000 0.050118
5.738000 0.049906
5.739000 0.049598
5.740000 0.049205
5.741000 0.048759
5.742000 0.048318
5.743000 0.047958
5.744000 0.047767
5.745000 0.047817
5.746000 0.047719
5.747000 0.047368
5.748000 0.046860
5.749000 0.046340
5.750000 0.045923
5.751000 0.045666
5.752000 0.045585
5.753000 0.045654
5.754000 0.045828
5.755000 0.046060
5.756000 0.046317
5.757000 0.046581
5.758000 0.046835
5.759000 0.047068
5.760000 0.047276
5.761000 0.047463
5.762000 0.047642
5.763000 0.047842
5.764000 0.048092
5.765000 0.048340
5.766000 0.048421
5.767000 0.048321
5.768000 0.048058
5.769000 0.047674
5.770000 0.047216
5.771000 0.046733
5.772000 0.046285
5.773000 0.045946
5.774000 0.045808
5.775000 0.045941
5.776000 0.046206
5.777000 0.046431
5.778000 0.046662
5.779000 0.046927
5.780000 0.047202
5.781000 0.047414
5.782000 0.047471
5.783000 0.047587
5.784000 0.048000
5.785000 0.048598
5.786000 0.049328
5.787000 0.050037
5.788000 0.050581
5.789000 0.050914
5.790000 0.051064
5.791000 0.051100
5.792000 0.051094
5.793000 0.051105
5.794000 0.051171
5.795000 0.051292
5.796000 0.051430
5.797000 0.051526
5.798000 0.051535
5.799000 0.051445
5.800000 0.051278
5.801000 0.051163
5.802000 0.051177
5.803000 0.051302
5.804000 0.051514
5.805000 0.051771
5.806000 0.052053
5.807000 0.052361
5.808000 0.052672
5.809000 0.052956
5.810000 0.053212
5.811000 0.053458
5.812000 0.053716
5.813000 0.054007
5.814000 0.054343
5.815000 0.054717
5.816000 0.055098
5.817000 0.055432
5.818000 0.055660
5.819000 0.055775
5.820000 0.055812
5.821000 0.055827
5.822000 0.055881
5.823000 0.056016
5.824000 0.056249
5.825000 0.056571
5.826000 0.056944
5.827000 0.057311
5.828000 0.057612
5.829000 0.057792
5.830000 0.057818
5.831000 0.057691
5.832000 0.057657
5.833000 0.057696
5.834000 0.057806
5.835000 0.058028
5.836000 0.058421
5.837000 0.059009
5.838000 0.059753
5.839000 0.060578
5.840000 0.061397
5.841000 0.062139
5.842000 0.062767
5.843000 0.063275
5.844000 0.063669
5.845000 0.063963
5.846000 0.064160
5.847000 0.064265
5.848000 0.064339
5.849000 0.064426
5.850000 0.064537
5.851000 0.064647
5.852000 0.064715
5.853000 0.064713
5.854000 0.064723
5.855000 0.064801
5.856000 0.064925
5.857000 0.065082
5.858000 0.065266
5.859000 0.065478
5.860000 0.065718
5.861000 0.065981
5.862000 0.066244
5.863000 0.066493
5.864000 0.066687
5.865000 0.066773
5.866000 0.066744
5.867000 0.066849
5.868000 0.067045
5.869000 0.067271
5.870000 0.067475
5.871000 0.067632
5.872000 0.067745
5.873000 0.067825
5.874000 0.067887
5.875000 0.067940
5.876000 0.067985
5.877000 0.068018
5.878000 0.068024
5.879000 0.068008
5.880000 0.067976
5.881000 0.067934
5.882000 0.067883
5.883000 0.067833
5.884000 0.067795
5.885000 0.067783
5.886000 0.067804
5.887000 0.067818
5.888000 0.067824
5.889000 0.067826
5.890000 0.067825
5.891000 0.067824
5.892000 0.067821
5.893000 0.067818
5.894000 0.067814
5.895000 0.067810
5.896000 0.067809
5.897000 0.067810
5.898000 0.067816
5.899000 0.067831
5.900000 0.067859
5.901000 0.067890
5.902000 0.067883
5.903000 0.067846
5.904000 0.067789
5.905000 0.067723
5.906000 0.067662
5.907000 0.067609
5.908000 0.067570
5.909000 0.067544
5.910000 0.067536
5.911000 0.067550
5.912000 0.067587
5.913000 0.067620
5.914000 0.067595
5.915000 0.067505
5.916000 0.067350
5.917000 0.067148
5.918000 0.066925
5.919000 0.066685
5.920000 0.066433
5.921000 0.066175
5.922000 0.065918
5.923000 0.065670
5.924000 0.065438
5.925000 0.065228
5.926000 0.065046
5.927000 0.064896
5.928000 0.064777
5.929000 0.064683
5.930000 0.064605
5.931000 0.064538
5.932000 0.064487
5.933000 0.064489
5.934000 0.064508
5.935000 0.064509
5.936000 0.064505
5.937000 0.064506
5.938000 0.064513
5.939000 0.064515
5.940000 0.064499
5.941000 0.064455
5.942000 0.064380
5.943000 0.064274
5.944000 0.064139
5.945000 0.063976
5.946000 0.063791
5.947000 0.063589
5.948000 0.063375
5.949000 0.063157
5.950000 0.062939
5.951000 0.062725
5.952000 0.062521
5.953000 0.062336
5.954000 0.062180
5.955000 0.062065
5.956000 0.061995
5.957000 0.061968
5.958000 0.061978
5.959000 0.062019
5.960000 0.062075
5.961000 0.062094
5.962000 0.062078
5.963000 0.062032
5.964000 0.061964
5.965000 0.061881
5.966000 0.061791
5.967000 0.061703
5.968000 0.061634
5.969000 0.061589
5.970000 0.061573
5.971000 0.061585
5.972000 0.061613
5.973000 0.061626
5.974000 0.061627
5.975000 0.061617
5.976000 0.061591
5.977000 0.061544
5.978000 0.061466
5.979000 0.061342
5.980000 0.061163
5.981000 0.060923
5.982000 0.060625
5.983000 0.060278
5.984000 0.059894
5.985000 0.059491
5.986000 0.059094
5.987000 0.058725
5.988000 0.058424
5.989000 0.058219
5.990000 0.058119
5.991000 0.058126
5.992000 0.058160
5.993000 0.058131
5.994000 0.058049
5.995000 0.057931
5.996000 0.057790
5.997000 0.057644
5.998000 0.057509
5.999000 0.057398
6.000000 0.057322
6.001000 0.057294
6.002000 0.057323
6.003000 0.057423
6.004000 0.057603
6.005000 0.057802
6.006000 0.057914
6.007000 0.057940
6.008000 0.057903
6.009000 0.057846
6.010000 0.057807
6.011000 0.057812
6.012000 0.057845
6.013000 0.057810
6.014000 0.057727
6.015000 0.057618
6.016000 0.057496
6.017000 0.057371
6.018000 0.057248
6.019000 0.057130
6.020000 0.057018
6.021000 0.056909
6.022000 0.056801
6.023000 0.056694
6.024000 0.056604
6.025000 0.056542
6.026000 0.056509
6.027000 0.056502
6.028000 0.056515
6.029000 0.056543
6.030000 0.056556
6.031000 0.056554
6.032000 0.056535
6.033000 0.056491
6.034000 0.056412
6.035000 0.056287
6.036000 0.056107
6.037000 0.055865
6.038000 0.055558
6.039000 0.055191
6.040000 0.054800
6.041000 0.054412
6.042000 0.054061
6.043000 0.053775
6.044000 0.053571
6.045000 0.053447
6.046000 0.053386
6.047000 0.053388
6.048000 0.053376
6.049000 0.053346
6.050000 0.053311
6.051000 0.053285
6.052000 0.053277
6.053000 0.053299
6.054000 0.053360
6.055000 0.053474
6.056000 0.053655
6.057000 0.053912
6.058000 0.054205
6.059000 0.054523
6.060000 0.054861
6.061000 0.055208
6.062000 0.055554
6.063000 0.055885
6.064000 0.056187
6.065000 0.056444
6.066000 0.056644
6.067000 0.056782
6.068000 0.056859
6.069000 0.056883
6.070000 0.056867
6.071000 0.056831
6.072000 0.056792
6.073000 0.056763
6.074000 0.056756
6.075000 0.056782
6.076000 0.056839
6.077000 0.056918
6.078000 0.056998
6.079000 0.057062
6.080000 0.057097
6.081000 0.057105
6.082000 0.057095
6.083000 0.057077
6.084000 0.057057
6.085000 0.057068
6.086000 0.057103
6.087000 0.057160
6.088000 0.057247
6.089000 0.057360
6.090000 0.057494
6.091000 0.057650
6.092000 0.057826
6.093000 0.058010
6.094000 0.058177
6.095000 0.058298
6.096000 0.058355
6.097000 0.058339
6.098000 0.058258
6.099000 0.058123
6.100000 0.057948
6.101000 0.057829
6.102000 0.057768
6.103000 0.057758
6.104000 0.057792
6.105000 0.057867
6.106000 0.057987
6.107000 0.058145
6.108000 0.058330
6.109000 0.058521
6.110000 0.058717
6.111000 0.058915
6.112000 0.059121
6.113000 0.059333
6.114000 0.059548
6.115000 0.059773
6.116000 0.060005
6.117000 0.060240
6.118000 0.060460
6.119000 0.060629
6.120000 0.060720
6.121000 0.060712
6.122000 0.060595
6.123000 0.060480
6.124000 0.060369
6.125000 0.060251
6.126000 0.060124
6.127000 0.060000
6.128000 0.059891
6.129000 0.059809
6.130000 0.059759
6.131000 0.059743
6.132000 0.059763
6.133000 0.059788
6.134000 0.059729
6.135000 0.059594
6.136000 0.059410
6.137000 0.059191
6.138000 0.058958
6.139000 0.058737
6.140000 0.058545
6.141000 0.058393
6.142000 0.058287
6.143000 0.058230
6.144000 0.058224
6.145000 0.058272
6.146000 0.058376
6.147000 0.058536
6.148000 0.058745
6.149000 0.058938
6.150000 0.059075
6.151000 0.059142
6.152000 0.059131
6.153000 0.059041
6.154000 0.058885
6.155000 0.058678
6.156000 0.058435
6.157000 0.058166
6.158000 0.057877
6.159000 0.057578
6.160000 0.057278
6.161000 0.056979
6.162000 0.056681
6.163000 0.056380
6.164000 0.056079
6.165000 0.055807
6.166000 0.055609
6.167000 0.055491
6.168000 0.055435
6.169000 0.055400
6.170000 0.055355
6.171000 0.055293
6.172000 0.055228
6.173000 0.055165
6.174000 0.055078
6.175000 0.054921
6.176000 0.054667
6.177000 0.054319
6.178000 0.053892
6.179000 0.053421
6.180000 0.052969
6.181000 0.052630
6.182000 0.052499
6.183000 0.052358
6.184000 0.051957
6.185000 0.051374
6.186000 0.050699
6.187000 0.050020
6.188000 0.049409
6.189000 0.048911
6.190000 0.048536
6.191000 0.048272
6.192000 0.048096
6.193000 0.047979
6.194000 0.047877
6.195000 0.047750
6.196000 0.047582
6.197000 0.047393
6.198000 0.047223
6.199000 0.047109
6.200000 0.047069
6.201000 0.047035
6.202000 0.046936
6.203000 0.046786
6.204000 0.046597
6.205000 0.046379
6.206000 0.046139
6.207000 0.045892
6.208000 0.045657
6.209000 0.045450
6.210000 0.045276
6.211000 0.045133
6.212000 0.045007
6.213000 0.044883
6.214000 0.044742
6.215000 0.044574
6.216000 0.044395
6.217000 0.044236
6.218000 0.044126
6.219000 0.044061
6.220000 0.044004
6.221000 0.044034
6.222000 0.044099
6.223000 0.044152
6.224000 0.044160
6.225000 0.044111
6.226000 0.044016
6.227000 0.043909
6.228000 0.043836
6.229000 0.043844
6.230000 0.043962
6.231000 0.044198
6.232000 0.044310
6.233000 0.044323
6.234000 0.044232
6.235000 0.043989
6.236000 0.043527
6.237000 0.042814
6.238000 0.041979
6.239000 0.041146
6.240000 0.040392
6.241000 0.039772
6.242000 0.039303
6.243000 0.038977
6.244000 0.038790
6.245000 0.038740
6.246000 0.038821
6.247000 0.039009
6.248000 0.039266
6.249000 0.039551
6.250000 0.039838
6.251000 0.040130
6.252000 0.040455
6.253000 0.040830
6.254000 0.041167
6.255000 0.041393
6.256000 0.041492
6.257000 0.041425
6.258000 0.041287
6.259000 0.041348
6.260000 0.041591
6.261000 0.041964
6.262000 0.042397
6.263000 0.042846
6.264000 0.043304
6.265000 0.043788
6.266000 0.044269
6.267000 0.044474
6.268000 0.044427
6.269000 0.044173
6.270000 0.044102
6.271000 0.044288
6.272000 0.044723
6.273000 0.045366
6.274000 0.046165
6.275000 0.047064
6.276000 0.048020
6.277000 0.048995
6.278000 0.049946
6.279000 0.050814
6.280000 0.051522
6.281000 0.051988
6.282000 0.052143
6.283000 0.052344
6.284000 0.052902
6.285000 0.053772
6.286000 0.054892
6.287000 0.056208
6.288000 0.057668
6.289000 0.059211
6.290000 0.060775
6.291000 0.062305
6.292000 0.063752
6.293000 0.065060
6.294000 0.066175
6.295000 0.067055
6.296000 0.067685
6.297000 0.068089
6.298000 0.068314
6.299000 0.068409
6.300000 0.068410
6.301000 0.068409
6.302000 0.068495
6.303000 0.068654
6.304000 0.068869
6.305000 0.069123
6.306000 0.069404
6.307000 0.069708
6.308000 0.070032
6.309000 0.070378
6.310000 0.070749
6.311000 0.071160
6.312000 0.071625
6.313000 0.072148
6.314000 0.072711
6.315000 0.073285
6.316000 0.073832
6.317000 0.074308
6.318000 0.074635
6.319000 0.074754
6.320000 0.074847
6.321000 0.075146
6.322000 0.075585
6.323000 0.076107
6.324000 0.076692
6.325000 0.077344
6.326000 0.078069
6.327000 0.078843
6.328000 0.079618
6.329000 0.080335
6.330000 0.080945
6.331000 0.081422
6.332000 0.081753
6.333000 0.081916
6.334000 0.081931
6.335000 0.081962
6.336000 0.082106
6.337000 0.082351
6.338000 0.082668
6.339000 0.083003
6.340000 0.083281
6.341000 0.083433
6.342000 0.083417
6.343000 0.083541
6.344000 0.083829
6.345000 0.084233
6.346000 0.084694
6.347000 0.085161
6.348000 0.085586
6.349000 0.085942
6.350000 0.086216
6.351000 0.086404
6.352000 0.086504
6.353000 0.086514
6.354000 0.086541
6.355000 0.086625
6.356000 0.086746
6.357000 0.086867
6.358000 0.086943
6.359000 0.086940
6.360000 0.086903
6.361000 0.086929
6.362000 0.086971
6.363000 0.086985
6.364000 0.086981
6.365000 0.087057
6.366000 0.087209
6.367000 0.087415
6.368000 0.087633
6.369000 0.087823
6.370000 0.087955
6.371000 0.088021
6.372000 0.088033
6.373000 0.088015
6.374000 0.087988
6.375000 0.087966
6.376000 0.087960
6.377000 0.087976
6.378000 0.088006
6.379000 0.088020
6.380000 0.087976
6.381000 0.087953
6.382000 0.088000
6.383000 0.088079
6.384000 0.088155
6.385000 0.088220
6.386000 0.088284
6.387000 0.088358
6.388000 0.088433
6.389000 0.088500
6.390000 0.088565
6.391000 0.088628
6.392000 0.088681
6.393000 0.088720
6.394000 0.088743
6.395000 0.088749
6.396000 0.088740
6.397000 0.088718
6.398000 0.088682
6.399000 0.088626
6.400000 0.088544
6.401000 0.088429
6.402000 0.088277
6.403000 0.088092
6.404000 0.087891
6.405000 0.087693
6.406000 0.087516
6.407000 0.087365
6.408000 0.087243
6.409000 0.087144
6.410000 0.087060
6.411000 0.087013
6.412000 0.086993
6.413000 0.086985
6.414000 0.086980
6.415000 0.086980
6.416000 0.086994
6.417000 0.087032
6.418000 0.087098
6.419000 0.087187
6.420000 0.087293
6.421000 0.087410
6.422000 0.087536
6.423000 0.087669
6.424000 0.087802
6.425000 0.087925
6.426000 0.088037
6.427000 0.088134
6.428000 0.088213
6.429000 0.088273
6.430000 0.088314
6.431000 0.088335
6.432000 0.088338
6.433000 0.088326
6.434000 0.088301
6.435000 0.088294
6.436000 0.088304
6.437000 0.088334
6.438000 0.088387
6.439000 0.088463
6.440000 0.088539
6.441000 0.088609
6.442000 0.088666
6.443000 0.088709
6.444000 0.088742
6.445000 0.088773
6.446000 0.088814
6.447000 0.088855
6.448000 0.088877
6.449000 0.088880
6.450000 0.088859
6.451000 0.088811
6.452000 0.088730
6.453000 0.088603
6.454000 0.088493
6.455000 0.088399
6.456000 0.088307
6.457000 0.088194
6.458000 0.088040
6.459000 0.087833
6.460000 0.087573
6.461000 0.087269
6.462000 0.086932
6.463000 0.086574
6.464000 0.086213
6.465000 0.085869
6.466000 0.085584
6.467000 0.085358
6.468000 0.085189
6.469000 0.085075
6.470000 0.085007
6.471000 0.084970
6.472000 0.084948
6.473000 0.084919
6.474000 0.084867
6.475000 0.084783
6.476000 0.084667
6.477000 0.084527
6.478000 0.084381
6.479000 0.084245
6.480000 0.084136
6.481000 0.084059
6.482000 0.084023
6.483000 0.084031
6.484000 0.084080
6.485000 0.084138
6.486000 0.084193
6.487000 0.084230
6.488000 0.084238
6.489000 0.084212
6.490000 0.084148
6.491000 0.084044
6.492000 0.083902
6.493000 0.083728
6.494000 0.083536
6.495000 0.083345
6.496000 0.083173
6.497000 0.083032
6.498000 0.082944
6.499000 0.082930
6.500000 0.082990
6.501000 0.083033
6.502000 0.083060
6.503000 0.083077
6.504000 0.083083
6.505000 0.083068
6.506000 0.083015
6.507000 0.082915
6.508000 0.082764
6.509000 0.082571
6.510000 0.082416
6.511000 0.082294
6.512000 0.082196
6.513000 0.082112
6.514000 0.082033
6.515000 0.081952
6.516000 0.081868
6.517000 0.081789
6.518000 0.081729
6.519000 0.081700
6.520000 0.081708
6.521000 0.081755
6.522000 0.081837
6.523000 0.081837
6.524000 0.081757
6.525000 0.081621
6.526000 0.081494
6.527000 0.081388
6.528000 0.081310
6.529000 0.081263
6.530000 0.081245
6.531000 0.081250
6.532000 0.081280
6.533000 0.081336
6.534000 0.081418
6.535000 0.081516
6.536000 0.081602
6.537000 0.081668
6.538000 0.081707
6.539000 0.081712
6.540000 0.081672
6.541000 0.081598
6.542000 0.081509
6.543000 0.081399
6.544000 0.081260
6.545000 0.081088
6.546000 0.080893
6.547000 0.080706
6.548000 0.080538
6.549000 0.080403
6.550000 0.080309
6.551000 0.080264
6.552000 0.080277
6.553000 0.080353
6.554000 0.080497
6.555000 0.080704
6.556000 0.080960
6.557000 0.081243
6.558000 0.081528
6.559000 0.081795
6.560000 0.082031
6.561000 0.082236
6.562000 0.082418
6.563000 0.082589
6.564000 0.082766
6.565000 0.082944
6.566000 0.083100
6.567000 0.083234
6.568000 0.083343
6.569000 0.083428
6.570000 0.083491
6.571000 0.083531
6.572000 0.083549
6.573000 0.083545
6.574000 0.083524
6.575000 0.083490
6.576000 0.083449
6.577000 0.083403
6.578000 0.083353
6.579000 0.083314
6.580000 0.083319
6.581000 0.083362
6.582000 0.083430
6.583000 0.083504
6.584000 0.083555
6.585000 0.083568
6.586000 0.083532
6.587000 0.083447
6.588000 0.083387
6.589000 0.083345
6.590000 0.083308
6.591000 0.083261
6.592000 0.083196
6.593000 0.083109
6.594000 0.083018
6.595000 0.082961
6.596000 0.082943
6.597000 0.082962
6.598000 0.083016
6.599000 0.083100
6.600000 0.083205
6.601000 0.083294
6.602000 0.083363
6.603000 0.083407
6.604000 0.083422
6.605000 0.083410
6.606000 0.083369
6.607000 0.083305
6.608000 0.083243
6.609000 0.083171
6.610000 0.083081
6.611000 0.082969
6.612000 0.082832
6.613000 0.082668
6.614000 0.082481
6.615000 0.082283
6.616000 0.082091
6.617000 0.081920
6.618000 0.081793
6.619000 0.081725
6.620000 0.081732
6.621000 0.081694
6.622000 0.081608
6.623000 0.081477
6.624000 0.081300
6.625000 0.081075
6.626000 0.080804
6.627000 0.080494
6.628000 0.080215
6.629000 0.079988
6.630000 0.079805
6.631000 0.079650
6.632000 0.079506
6.633000 0.079360
6.634000 0.079202
6.635000 0.079111
6.636000 0.079141
6.637000 0.079309
6.638000 0.079520
6.639000 0.079712
6.640000 0.079869
6.641000 0.079980
6.642000 0.080044
6.643000 0.080063
6.644000 0.080032
6.645000 0.079944
6.646000 0.079786
6.647000 0.079548
6.648000 0.079229
6.649000 0.078848
6.650000 0.078442
6.651000 0.078044
6.652000 0.077671
6.653000 0.077329
6.654000 0.077024
6.655000 0.076768
6.656000 0.076593
6.657000 0.076551
6.658000 0.076546
6.659000 0.076305
6.660000 0.075843
6.661000 0.075216
6.662000 0.074518
6.663000 0.073824
6.664000 0.073175
6.665000 0.072598
6.666000 0.072118
6.667000 0.071768
6.668000 0.071604
6.669000 0.071645
6.670000 0.071553
6.671000 0.071269
6.672000 0.070797
6.673000 0.070160
6.674000 0.069399
6.675000 0.068557
6.676000 0.067672
6.677000 0.066782
6.678000 0.065929
6.679000 0.065169
6.680000 0.064566
6.681000 0.064194
6.682000 0.064122
6.683000 0.063992
6.684000 0.063487
6.685000 0.062645
6.686000 0.061531
6.687000 0.060203
6.688000 0.058715
6.689000 0.057130
6.690000 0.055506
6.691000 0.053894
6.692000 0.052381
6.693000 0.051028
6.694000 0.049889
6.695000 0.049004
6.696000 0.048385
6.697000 0.048007
6.698000 0.047829
6.699000 0.047806
6.700000 0.047905
6.701000 0.048034
6.702000 0.048106
6.703000 0.048133
6.704000 0.048125
6.705000 0.048085
6.706000 0.048008
6.707000 0.047881
6.708000 0.047695
6.709000 0.047440
6.710000 0.047111
6.711000 0.046700
6.712000 0.046205
6.713000 0.045643
6.714000 0.045044
6.715000 0.044453
6.716000 0.043915
6.717000 0.043491
6.718000 0.043261
6.719000 0.043300
6.720000 0.043427
6.721000 0.043398
6.722000 0.043258
6.723000 0.043038
6.724000 0.042738
6.725000 0.042338
6.726000 0.041825
6.727000 0.041224
6.728000 0.040591
6.729000 0.039997
6.730000 0.039499
6.731000 0.039133
6.732000 0.038907
6.733000 0.038802
6.734000 0.038786
6.735000 0.038740
6.736000 0.038655
6.737000 0.038555
6.738000 0.038477
6.739000 0.038474
6.740000 0.038611
6.741000 0.038920
6.742000 0.039375
6.743000 0.039577
6.744000 0.039427
6.745000 0.039052
6.746000 0.038800
6.747000 0.038639
6.748000 0.038527
6.749000 0.038437
6.750000 0.038366
6.751000 0.038325
6.752000 0.038345
6.753000 0.038479
6.754000 0.038664
6.755000 0.038881
6.756000 0.039138
6.757000 0.039442
6.758000 0.039786
6.759000 0.040147
6.760000 0.040437
6.761000 0.040526
6.762000 0.040445
6.763000 0.040588
6.764000 0.040939
6.765000 0.041368
6.766000 0.041846
6.767000 0.042361
6.768000 0.042912
6.769000 0.043484
6.770000 0.044039
6.771000 0.044514
6.772000 0.044858
6.773000 0.045058
6.774000 0.045137
6.775000 0.045136
6.776000 0.045074
6.777000 0.045046
6.778000 0.045139
6.779000 0.045444
6.780000 0.046011
6.781000 0.046717
6.782000 0.047433
6.783000 0.048111
6.784000 0.048707
6.785000 0.049176
6.786000 0.049485
6.787000 0.049616
6.788000 0.049559
6.789000 0.049616
6.790000 0.049829
6.791000 0.050178
6.792000 0.050624
6.793000 0.051121
6.794000 0.051629
6.795000 0.052125
6.796000 0.052590
6.797000 0.053006
6.798000 0.053342
6.799000 0.053548
6.800000 0.053564
6.801000 0.053739
6.802000 0.054149
6.803000 0.054735
6.804000 0.055412
6.805000 0.056088
6.806000 0.056693
6.807000 0.057182
6.808000 0.057537
6.809000 0.057760
6.810000 0.057862
6.811000 0.057869
6.812000 0.057953
6.813000 0.058058
6.814000 0.058110
6.815000 0.058052
6.816000 0.058106
6.817000 0.058237
6.818000 0.058389
6.819000 0.058520
6.820000 0.058629
6.821000 0.058735
6.822000 0.058852
6.823000 0.058963
6.824000 0.059029
6.825000 0.059018
6.826000 0.058936
6.827000 0.058840
6.828000 0.058827
6.829000 0.058995
6.830000 0.059392
6.831000 0.059991
6.832000 0.060715
6.833000 0.061473
6.834000 0.062184
6.835000 0.062772
6.836000 0.063223
6.837000 0.063545
6.838000 0.063746
6.839000 0.063840
6.840000 0.063839
6.841000 0.063759
6.842000 0.063723
6.843000 0.063752
6.844000 0.063838
6.845000 0.063968
6.846000 0.064128
6.847000 0.064303
6.848000 0.064481
6.849000 0.064662
6.850000 0.064850
6.851000 0.065047
6.852000 0.065257
6.853000 0.065488
6.854000 0.065677
6.855000 0.065824
6.856000 0.065940
6.857000 0.066043
6.858000 0.066149
6.859000 0.066263
6.860000 0.066388
6.861000 0.066528
6.862000 0.066685
6.863000 0.066859
6.864000 0.067044
6.865000 0.067228
