0.200000 0.095750
0.201000 0.095679
0.202000 0.096147
0.203000 0.096695
0.204000 0.097310
0.205000 0.098007
0.206000 0.098797
0.207000 0.099637
0.208000 0.100296
0.209000 0.100824
0.210000 0.101271
0.211000 0.101660
0.212000 0.101993
0.213000 0.102266
0.214000 0.102469
0.215000 0.102571
0.216000 0.102526
0.217000 0.102290
0.218000 0.101836
0.219000 0.101180
0.220000 0.100384
0.221000 0.099549
0.222000 0.098769
0.223000 0.098104
0.224000 0.097557
0.225000 0.097090
0.226000 0.096640
0.227000 0.096151
0.228000 0.095582
0.229000 0.094901
0.230000 0.094364
0.231000 0.093993
0.232000 0.093732
0.233000 0.093524
0.234000 0.093353
0.235000 0.093268
0.236000 0.093369
0.237000 0.093559
0.238000 0.093507
0.239000 0.093293
0.240000 0.092984
0.241000 0.092645
0.242000 0.092334
0.243000 0.092096
0.244000 0.091970
0.245000 0.091981
0.246000 0.092130
0.247000 0.092410
0.248000 0.092811
0.249000 0.093319
0.250000 0.093833
0.251000 0.094345
0.252000 0.094854
0.253000 0.095364
0.254000 0.095866
0.255000 0.096315
0.256000 0.096637
0.257000 0.096757
0.258000 0.096651
0.259000 0.096656
0.260000 0.096776
0.261000 0.096918
0.262000 0.097011
0.263000 0.097018
0.264000 0.096931
0.265000 0.096909
0.266000 0.096984
0.267000 0.097149
0.268000 0.097393
0.269000 0.097697
0.270000 0.098026
0.271000 0.098337
0.272000 0.098583
0.273000 0.098736
0.274000 0.098802
0.275000 0.098810
0.276000 0.098805
0.277000 0.098816
0.278000 0.098855
0.279000 0.098925
0.280000 0.099020
0.281000 0.099131
0.282000 0.099253
0.283000 0.099381
0.284000 0.099517
0.285000 0.099661
0.286000 0.099813
0.287000 0.099972
0.288000 0.100137
0.289000 0.100305
0.290000 0.100473
0.291000 0.100638
0.292000 0.100796
0.293000 0.100941
0.294000 0.101069
0.295000 0.101178
0.296000 0.101265
0.297000 0.101330
0.298000 0.101371
0.299000 0.101394
0.300000 0.101403
0.301000 0.101401
0.302000 0.101387
0.303000 0.101361
0.304000 0.101324
0.305000 0.101274
0.306000 0.101234
0.307000 0.101204
0.308000 0.101178
0.309000 0.101154
0.310000 0.101125
0.311000 0.101094
0.312000 0.101063
0.313000 0.101036
0.314000 0.101014
0.315000 0.100992
0.316000 0.100969
0.317000 0.100954
0.318000 0.100945
0.319000 0.100942
0.320000 0.100946
0.321000 0.100963
0.322000 0.100993
0.323000 0.101036
0.324000 0.101087
0.325000 0.101139
0.326000 0.101186
0.327000 0.101223
0.328000 0.101251
0.329000 0.101275
0.330000 0.101302
0.331000 0.101288
0.332000 0.101228
0.333000 0.101132
0.334000 0.101022
0.335000 0.100920
0.336000 0.100847
0.337000 0.100813
0.338000 0.100817
0.339000 0.100851
0.340000 0.100902
0.341000 0.100964
0.342000 0.101030
0.343000 0.101097
0.344000 0.101160
0.345000 0.101218
0.346000 0.101266
0.347000 0.101300
0.348000 0.101320
0.349000 0.101324
0.350000 0.101312
0.351000 0.101303
0.352000 0.101301
0.353000 0.101308
0.354000 0.101322
0.355000 0.101340
0.356000 0.101361
0.357000 0.101383
0.358000 0.101385
0.359000 0.101372
0.360000 0.101367
0.361000 0.101372
0.362000 0.101387
0.363000 0.101411
0.364000 0.101439
0.365000 0.101466
0.366000 0.101490
0.367000 0.101507
0.368000 0.101519
0.369000 0.101523
0.370000 0.101519
0.371000 0.101508
0.372000 0.101491
0.373000 0.101470
0.374000 0.101444
0.375000 0.101419
0.376000 0.101402
0.377000 0.101393
0.378000 0.101393
0.379000 0.101403
0.380000 0.101426
0.381000 0.101464
0.382000 0.101489
0.383000 0.101497
0.384000 0.101491
0.385000 0.101471
0.386000 0.101441
0.387000 0.101410
0.388000 0.101382
0.389000 0.101358
0.390000 0.101336
0.391000 0.101317
0.392000 0.101304
0.393000 0.101296
0.394000 0.101295
0.395000 0.101298
0.396000 0.101305
0.397000 0.101315
0.398000 0.101328
0.399000 0.101346
0.400000 0.101368
0.401000 0.101391
0.402000 0.101409
0.403000 0.101419
0.404000 0.101422
0.405000 0.101417
0.406000 0.101403
0.407000 0.101384
0.408000 0.101360
0.409000 0.101332
0.410000 0.101304
0.411000 0.101275
0.412000 0.101245
0.413000 0.101213
0.414000 0.101177
0.415000 0.101135
0.416000 0.101085
0.417000 0.101025
0.418000 0.100959
0.419000 0.100894
0.420000 0.100828
0.421000 0.100759
0.422000 0.100695
0.423000 0.100634
0.424000 0.100576
0.425000 0.100520
0.426000 0.100465
0.427000 0.100412
0.428000 0.100361
0.429000 0.100315
0.430000 0.100276
0.431000 0.100244
0.432000 0.100218
0.433000 0.100198
0.434000 0.100179
0.435000 0.100159
0.436000 0.100135
0.437000 0.100106
0.438000 0.100069
0.439000 0.100023
0.440000 0.099957
0.441000 0.099859
0.442000 0.099710
0.443000 0.099494
0.444000 0.099203
0.445000 0.098841
0.446000 0.098428
0.447000 0.098002
0.448000 0.097622
0.449000 0.097360
0.450000 0.097283
0.451000 0.097400
0.452000 0.097365
0.453000 0.097208
0.454000 0.096982
0.455000 0.096744
0.456000 0.096539
0.457000 0.096385
0.458000 0.096290
0.459000 0.096257
0.460000 0.096294
0.461000 0.096401
0.462000 0.096393
0.463000 0.096288
0.464000 0.096089
0.465000 0.095792
0.466000 0.095520
0.467000 0.095391
0.468000 0.095451
0.469000 0.095722
0.470000 0.095849
0.471000 0.095727
0.472000 0.095362
0.473000 0.094815
0.474000 0.094180
0.475000 0.093557
0.476000 0.093038
0.477000 0.092693
0.478000 0.092557
0.479000 0.092627
0.480000 0.092876
0.481000 0.093256
0.482000 0.093706
0.483000 0.094160
0.484000 0.094574
0.485000 0.094923
0.486000 0.095203
0.487000 0.095385
0.488000 0.095440
0.489000 0.095368
0.490000 0.095207
0.491000 0.095017
0.492000 0.094784
0.493000 0.094500
0.494000 0.094178
0.495000 0.093846
0.496000 0.093541
0.497000 0.093305
0.498000 0.093166
0.499000 0.093129
0.500000 0.093186
0.501000 0.093328
0.502000 0.093404
0.503000 0.093327
0.504000 0.093071
0.505000 0.092620
0.506000 0.092096
0.507000 0.091539
0.508000 0.090970
0.509000 0.090397
0.510000 0.089834
0.511000 0.089315
0.512000 0.088885
0.513000 0.088583
0.514000 0.088425
0.515000 0.088398
0.516000 0.088474
0.517000 0.088474
0.518000 0.088303
0.519000 0.088118
0.520000 0.088066
0.521000 0.088276
0.522000 0.088622
0.523000 0.089089
0.524000 0.089643
0.525000 0.090014
0.526000 0.090119
0.527000 0.089922
0.528000 0.089437
0.529000 0.089084
0.530000 0.088911
0.531000 0.088896
0.532000 0.088973
0.533000 0.089035
0.534000 0.088958
0.535000 0.088648
0.536000 0.088217
0.537000 0.088032
0.538000 0.088076
0.539000 0.088286
0.540000 0.088591
0.541000 0.088907
0.542000 0.088947
0.543000 0.088703
0.544000 0.088243
0.545000 0.087784
0.546000 0.087390
0.547000 0.087124
0.548000 0.087018
0.549000 0.087071
0.550000 0.087056
0.551000 0.086811
0.552000 0.086377
0.553000 0.085870
0.554000 0.085357
0.555000 0.084916
0.556000 0.084605
0.557000 0.084456
0.558000 0.084480
0.559000 0.084583
0.560000 0.084632
0.561000 0.084488
0.562000 0.084068
0.563000 0.083566
0.564000 0.083060
0.565000 0.082554
0.566000 0.082033
0.567000 0.081486
0.568000 0.080979
0.569000 0.080733
0.570000 0.080766
0.571000 0.080886
0.572000 0.080757
0.573000 0.080412
0.574000 0.079918
0.575000 0.079336
0.576000 0.078851
0.577000 0.078716
0.578000 0.079019
0.579000 0.079694
0.580000 0.080399
0.581000 0.081112
0.582000 0.081789
0.583000 0.082355
0.584000 0.082707
0.585000 0.082757
0.586000 0.082448
0.587000 0.081760
0.588000 0.080829
0.589000 0.079933
0.590000 0.079050
0.591000 0.078153
0.592000 0.077180
0.593000 0.076520
0.594000 0.076132
0.595000 0.075899
0.596000 0.075745
0.597000 0.075652
0.598000 0.075616
0.599000 0.075643
0.600000 0.075748
0.601000 0.075570
0.602000 0.075213
0.603000 0.074682
0.604000 0.073960
0.605000 0.073056
0.606000 0.072325
0.607000 0.071765
0.608000 0.071283
0.609000 0.070736
0.610000 0.069997
0.611000 0.069025
0.612000 0.068178
0.613000 0.067453
0.614000 0.066837
0.615000 0.066331
0.616000 0.065943
0.617000 0.065684
0.618000 0.065573
0.619000 0.065622
0.620000 0.065819
0.621000 0.066119
0.622000 0.066449
0.623000 0.066736
0.624000 0.066951
0.625000 0.067124
0.626000 0.067326
0.627000 0.067637
0.628000 0.068093
0.629000 0.068665
0.630000 0.069002
0.631000 0.068981
0.632000 0.068622
0.633000 0.068549
0.634000 0.068769
0.635000 0.069224
0.636000 0.069815
0.637000 0.070422
0.638000 0.070937
0.639000 0.071319
0.640000 0.071595
0.641000 0.071802
0.642000 0.071951
0.643000 0.072032
0.644000 0.072020
0.645000 0.071912
0.646000 0.071737
0.647000 0.071522
0.648000 0.071263
0.649000 0.070935
0.650000 0.070501
0.651000 0.069940
0.652000 0.069393
0.653000 0.068859
0.654000 0.068303
0.655000 0.067752
0.656000 0.067306
0.657000 0.067085
0.658000 0.067160
0.659000 0.067214
0.660000 0.067233
0.661000 0.067277
0.662000 0.067371
0.663000 0.067507
0.664000 0.067681
0.665000 0.067754
0.666000 0.067736
0.667000 0.067677
0.668000 0.067579
0.669000 0.067390
0.670000 0.067049
0.671000 0.066844
0.672000 0.066896
0.673000 0.067160
0.674000 0.067538
0.675000 0.067917
0.676000 0.068197
0.677000 0.068320
0.678000 0.068282
0.679000 0.068367
0.680000 0.068543
0.681000 0.068751
0.682000 0.068918
0.683000 0.068994
0.684000 0.068960
0.685000 0.068845
0.686000 0.068700
0.687000 0.068569
0.688000 0.068486
0.689000 0.068466
0.690000 0.068513
0.691000 0.068617
0.692000 0.068757
0.693000 0.068909
0.694000 0.069051
0.695000 0.069170
0.696000 0.069265
0.697000 0.069349
0.698000 0.069439
0.699000 0.069549
0.700000 0.069684
0.701000 0.069844
0.702000 0.070027
0.703000 0.070233
0.704000 0.070459
0.705000 0.070702
0.706000 0.070939
0.707000 0.071168
0.708000 0.071393
0.709000 0.071615
0.710000 0.071838
0.711000 0.072060
0.712000 0.072281
0.713000 0.072491
0.714000 0.072686
0.715000 0.072861
0.716000 0.073015
0.717000 0.073140
0.718000 0.073242
0.719000 0.073325
0.720000 0.073393
0.721000 0.073450
0.722000 0.073499
0.723000 0.073543
0.724000 0.073585
0.725000 0.073630
0.726000 0.073685
0.727000 0.073754
0.728000 0.073841
0.729000 0.073948
0.730000 0.074080
0.731000 0.074241
0.732000 0.074435
0.733000 0.074663
0.734000 0.074914
0.735000 0.075149
0.736000 0.075304
0.737000 0.075327
0.738000 0.075297
0.739000 0.075352
0.740000 0.075468
0.741000 0.075630
0.742000 0.075820
0.743000 0.076019
0.744000 0.076207
0.745000 0.076365
0.746000 0.076482
0.747000 0.076553
0.748000 0.076578
0.749000 0.076567
0.750000 0.076620
0.751000 0.076717
0.752000 0.076850
0.753000 0.077021
0.754000 0.077227
0.755000 0.077449
0.756000 0.077647
0.757000 0.077767
0.758000 0.077776
0.759000 0.077868
0.760000 0.078015
0.761000 0.078157
0.762000 0.078264
0.763000 0.078351
0.764000 0.078441
0.765000 0.078530
0.766000 0.078593
0.767000 0.078596
0.768000 0.078546
0.769000 0.078591
0.770000 0.078715
0.771000 0.078900
0.772000 0.079125
0.773000 0.079363
0.774000 0.079586
0.775000 0.079774
0.776000 0.079924
0.777000 0.080050
0.778000 0.080166
0.779000 0.080280
0.780000 0.080395
0.781000 0.080514
0.782000 0.080639
0.783000 0.080774
0.784000 0.080921
0.785000 0.081067
0.786000 0.081168
0.787000 0.081170
0.788000 0.081266
0.789000 0.081433
0.790000 0.081650
0.791000 0.081935
0.792000 0.082316
0.793000 0.082797
0.794000 0.083336
0.795000 0.083864
0.796000 0.084312
0.797000 0.084637
0.798000 0.084834
0.799000 0.084945
0.800000 0.085027
0.801000 0.085113
0.802000 0.085205
0.803000 0.085278
0.804000 0.085303
0.805000 0.085303
0.806000 0.085369
0.807000 0.085490
0.808000 0.085648
0.809000 0.085830
0.810000 0.086025
0.811000 0.086230
0.812000 0.086441
0.813000 0.086654
0.814000 0.086865
0.815000 0.087069
0.816000 0.087267
0.817000 0.087458
0.818000 0.087639
0.819000 0.087807
0.820000 0.087966
0.821000 0.088121
0.822000 0.088265
0.823000 0.088397
0.824000 0.088516
0.825000 0.088623
0.826000 0.088719
0.827000 0.088807
0.828000 0.088889
0.829000 0.088965
0.830000 0.089036
0.831000 0.089099
0.832000 0.089154
0.833000 0.089197
0.834000 0.089228
0.835000 0.089243
0.836000 0.089241
0.837000 0.089220
0.838000 0.089180
0.839000 0.089121
0.840000 0.089048
0.841000 0.088971
0.842000 0.088904
0.843000 0.088858
0.844000 0.088838
0.845000 0.088835
0.846000 0.088839
0.847000 0.088835
0.848000 0.088811
0.849000 0.088757
0.850000 0.088667
0.851000 0.088539
0.852000 0.088369
0.853000 0.088157
0.854000 0.087904
0.855000 0.087623
0.856000 0.087337
0.857000 0.087078
0.858000 0.086869
0.859000 0.086721
0.860000 0.086625
0.861000 0.086560
0.862000 0.086507
0.863000 0.086457
0.864000 0.086428
0.865000 0.086449
0.866000 0.086434
0.867000 0.086316
0.868000 0.086107
0.869000 0.085847
0.870000 0.085588
0.871000 0.085381
0.872000 0.085258
0.873000 0.085225
0.874000 0.085262
0.875000 0.085331
0.876000 0.085387
0.877000 0.085379
0.878000 0.085279
0.879000 0.085081
0.880000 0.084792
0.881000 0.084432
0.882000 0.084040
0.883000 0.083662
0.884000 0.083336
0.885000 0.083091
0.886000 0.082947
0.887000 0.082913
0.888000 0.082991
0.889000 0.083177
0.890000 0.083428
0.891000 0.083690
0.892000 0.083992
0.893000 0.084354
0.894000 0.084784
0.895000 0.085278
0.896000 0.085826
0.897000 0.086405
0.898000 0.086977
0.899000 0.087481
0.900000 0.087846
0.901000 0.088004
0.902000 0.087907
0.903000 0.088039
0.904000 0.088473
0.905000 0.089137
0.906000 0.089820
0.907000 0.090404
0.908000 0.090805
0.909000 0.090989
0.910000 0.090973
0.911000 0.090799
0.912000 0.090515
0.913000 0.090164
0.914000 0.089800
0.915000 0.089579
0.916000 0.089526
0.917000 0.089638
0.918000 0.089840
0.919000 0.090037
0.920000 0.090127
0.921000 0.089990
0.922000 0.089597
0.923000 0.089131
0.924000 0.088675
0.925000 0.088284
0.926000 0.088006
0.927000 0.087871
0.928000 0.087888
0.929000 0.087729
0.930000 0.087455
0.931000 0.087114
0.932000 0.086777
0.933000 0.086528
0.934000 0.086451
0.935000 0.086612
0.936000 0.086898
0.937000 0.086966
0.938000 0.086849
0.939000 0.086599
0.940000 0.086279
0.941000 0.085956
0.942000 0.085792
0.943000 0.085770
0.944000 0.085797
0.945000 0.085732
0.946000 0.085702
0.947000 0.085746
0.948000 0.085904
0.949000 0.086193
0.950000 0.086590
0.951000 0.087024
0.952000 0.087404
0.953000 0.087601
0.954000 0.087578
0.955000 0.087758
0.956000 0.088191
0.957000 0.088826
0.958000 0.089534
0.959000 0.090230
0.960000 0.090860
0.961000 0.091419
0.962000 0.091940
0.963000 0.092274
0.964000 0.092411
0.965000 0.092410
0.966000 0.092338
0.967000 0.092255
0.968000 0.092301
0.969000 0.092277
0.970000 0.092170
0.971000 0.091998
0.972000 0.091809
0.973000 0.091681
0.974000 0.091695
0.975000 0.091912
0.976000 0.092216
0.977000 0.092380
0.978000 0.092304
0.979000 0.091943
0.980000 0.091312
0.981000 0.090456
0.982000 0.089539
0.983000 0.088928
0.984000 0.088732
0.985000 0.088977
0.986000 0.089621
0.987000 0.090587
0.988000 0.091669
0.989000 0.092553
0.990000 0.093274
0.991000 0.093906
0.992000 0.094565
0.993000 0.094902
0.994000 0.094969
0.995000 0.094875
0.996000 0.094717
0.997000 0.094566
0.998000 0.094474
0.999000 0.094480
1.000000 0.094601
1.001000 0.094804
1.002000 0.094762
1.003000 0.094635
1.004000 0.094682
1.005000 0.094962
1.006000 0.095168
1.007000 0.095319
1.008000 0.095489
1.009000 0.095764
1.010000 0.096219
1.011000 0.096885
1.012000 0.097430
1.013000 0.097888
1.014000 0.098307
1.015000 0.098731
1.016000 0.099189
1.017000 0.099686
1.018000 0.100182
1.019000 0.100612
1.020000 0.100905
1.021000 0.101015
1.022000 0.100920
1.023000 0.100616
1.024000 0.100104
1.025000 0.099744
1.026000 0.099556
1.027000 0.099472
1.028000 0.099435
1.029000 0.099445
1.030000 0.099542
1.031000 0.099776
1.032000 0.100141
1.033000 0.100057
1.034000 0.099569
1.035000 0.098785
1.036000 0.098013
1.037000 0.097311
1.038000 0.096723
1.039000 0.096247
1.040000 0.095839
1.041000 0.095456
1.042000 0.095088
1.043000 0.094776
1.044000 0.094557
1.045000 0.094389
1.046000 0.094290
1.047000 0.094227
1.048000 0.094190
1.049000 0.094198
1.050000 0.094295
1.051000 0.094519
1.052000 0.094725
1.053000 0.094885
1.054000 0.095003
1.055000 0.095058
1.056000 0.095039
1.057000 0.095076
1.058000 0.095082
1.059000 0.094991
1.060000 0.094782
1.061000 0.094476
1.062000 0.094217
1.063000 0.094073
1.064000 0.094050
1.065000 0.094119
1.066000 0.094226
1.067000 0.094320
1.068000 0.094402
1.069000 0.094543
1.070000 0.094841
1.071000 0.095051
1.072000 0.095095
1.073000 0.095041
1.074000 0.094964
1.075000 0.094923
1.076000 0.094950
1.077000 0.095058
1.078000 0.095227
1.079000 0.095152
1.080000 0.094916
1.081000 0.094749
1.082000 0.094704
1.083000 0.094796
1.084000 0.094997
1.085000 0.095247
1.086000 0.095481
1.087000 0.095647
1.088000 0.095708
1.089000 0.095643
1.090000 0.095442
1.091000 0.095201
1.092000 0.095009
1.093000 0.094896
1.094000 0.094880
1.095000 0.094973
1.096000 0.095172
1.097000 0.095448
1.098000 0.095745
1.099000 0.096000
1.100000 0.096149
1.101000 0.096139
1.102000 0.095943
1.103000 0.095849
1.104000 0.095887
1.105000 0.096003
1.106000 0.096138
1.107000 0.096247
1.108000 0.096305
1.109000 0.096298
1.110000 0.096228
1.111000 0.096098
1.112000 0.095919
1.113000 0.095703
1.114000 0.095534
1.115000 0.095427
1.116000 0.095376
1.117000 0.095373
1.118000 0.095408
1.119000 0.095471
1.120000 0.095550
1.121000 0.095639
1.122000 0.095731
1.123000 0.095821
1.124000 0.095904
1.125000 0.095975
1.126000 0.096033
1.127000 0.096075
1.128000 0.096100
1.129000 0.096104
1.130000 0.096086
1.131000 0.096041
1.132000 0.095963
1.133000 0.095849
1.134000 0.095705
1.135000 0.095562
1.136000 0.095479
1.137000 0.095502
1.138000 0.095554
1.139000 0.095504
1.140000 0.095381
1.141000 0.095210
1.142000 0.095010
1.143000 0.094800
1.144000 0.094603
1.145000 0.094438
1.146000 0.094319
1.147000 0.094250
1.148000 0.094233
1.149000 0.094258
1.150000 0.094226
1.151000 0.094140
1.152000 0.094006
1.153000 0.093825
1.154000 0.093604
1.155000 0.093364
1.156000 0.093148
1.157000 0.093010
1.158000 0.092991
1.159000 0.092895
1.160000 0.092725
1.161000 0.092538
1.162000 0.092365
1.163000 0.092196
1.164000 0.092021
1.165000 0.091851
1.166000 0.091714
1.167000 0.091644
1.168000 0.091634
1.169000 0.091538
1.170000 0.091375
1.171000 0.091163
1.172000 0.090920
1.173000 0.090675
1.174000 0.090454
1.175000 0.090269
1.176000 0.090115
1.177000 0.089979
1.178000 0.089849
1.179000 0.089718
1.180000 0.089583
1.181000 0.089443
1.182000 0.089294
1.183000 0.089137
1.184000 0.088967
1.185000 0.088819
1.186000 0.088737
1.187000 0.088765
1.188000 0.088705
1.189000 0.088580
1.190000 0.088411
1.191000 0.088179
1.192000 0.087853
1.193000 0.087426
1.194000 0.086933
1.195000 0.086439
1.196000 0.086014
1.197000 0.085707
1.198000 0.085527
1.199000 0.085436
1.200000 0.085377
1.201000 0.085316
1.202000 0.085253
1.203000 0.085210
1.204000 0.085218
1.205000 0.085247
1.206000 0.085207
1.207000 0.085108
1.208000 0.084964
1.209000 0.084793
1.210000 0.084604
1.211000 0.084398
1.212000 0.084178
1.213000 0.083946
1.214000 0.083726
1.215000 0.083524
1.216000 0.083341
1.217000 0.083177
1.218000 0.083026
1.219000 0.082884
1.220000 0.082747
1.221000 0.082612
1.222000 0.082479
1.223000 0.082351
1.224000 0.082233
1.225000 0.082126
1.226000 0.082030
1.227000 0.081946
1.228000 0.081870
1.229000 0.081797
1.230000 0.081725
1.231000 0.081652
1.232000 0.081580
1.233000 0.081511
1.234000 0.081448
1.235000 0.081391
1.236000 0.081343
1.237000 0.081305
1.238000 0.081277
1.239000 0.081258
1.240000 0.081249
1.241000 0.081248
1.242000 0.081256
1.243000 0.081272
1.244000 0.081299
1.245000 0.081335
1.246000 0.081379
1.247000 0.081426
1.248000 0.081468
1.249000 0.081499
1.250000 0.081516
1.251000 0.081522
1.252000 0.081518
1.253000 0.081511
1.254000 0.081504
1.255000 0.081498
1.256000 0.081492
1.257000 0.081483
1.258000 0.081469
1.259000 0.081451
1.260000 0.081430
1.261000 0.081405
1.262000 0.081378
1.263000 0.081351
1.264000 0.081324
1.265000 0.081298
1.266000 0.081276
1.267000 0.081257
1.268000 0.081239
1.269000 0.081221
1.270000 0.081199
1.271000 0.081171
1.272000 0.081138
1.273000 0.081097
1.274000 0.081050
1.275000 0.080996
1.276000 0.080935
1.277000 0.080865
1.278000 0.080784
1.279000 0.080690
1.280000 0.080588
1.281000 0.080484
1.282000 0.080382
1.283000 0.080283
1.284000 0.080187
1.285000 0.080087
1.286000 0.079977
1.287000 0.079852
1.288000 0.079706
1.289000 0.079532
1.290000 0.079326
1.291000 0.079085
1.292000 0.078805
1.293000 0.078483
1.294000 0.078115
1.295000 0.077697
1.296000 0.077223
1.297000 0.076694
1.298000 0.076136
1.299000 0.075613
1.300000 0.075214
1.301000 0.075033
1.302000 0.075143
1.303000 0.075077
1.304000 0.074779
1.305000 0.074334
1.306000 0.073837
1.307000 0.073381
1.308000 0.073052
1.309000 0.072896
1.310000 0.072915
1.311000 0.073077
1.312000 0.073325
1.313000 0.073587
1.314000 0.073774
1.315000 0.073709
1.316000 0.073784
1.317000 0.074013
1.318000 0.074369
1.319000 0.074821
1.320000 0.075339
1.321000 0.075900
1.322000 0.076478
1.323000 0.076918
1.324000 0.077208
1.325000 0.077377
1.326000 0.077455
1.327000 0.077469
1.328000 0.077440
1.329000 0.077506
1.330000 0.077598
1.331000 0.077711
1.332000 0.077839
1.333000 0.077976
1.334000 0.078116
1.335000 0.078249
1.336000 0.078368
1.337000 0.078469
1.338000 0.078552
1.339000 0.078613
1.340000 0.078635
1.341000 0.078653
1.342000 0.078783
1.343000 0.079022
1.344000 0.079383
1.345000 0.079811
1.346000 0.080165
1.347000 0.080407
1.348000 0.080532
1.349000 0.080567
1.350000 0.080565
1.351000 0.080599
1.352000 0.080731
1.353000 0.081001
1.354000 0.081427
1.355000 0.081582
1.356000 0.081425
1.357000 0.080996
1.358000 0.080369
1.359000 0.079627
1.360000 0.078874
1.361000 0.078314
1.362000 0.077965
1.363000 0.077811
1.364000 0.077819
1.365000 0.077959
1.366000 0.078217
1.367000 0.078584
1.368000 0.078904
1.369000 0.079197
1.370000 0.079492
1.371000 0.079780
1.372000 0.080022
1.373000 0.080147
1.374000 0.080072
1.375000 0.079851
1.376000 0.079681
1.377000 0.079625
1.378000 0.079710
1.379000 0.079903
1.380000 0.080151
1.381000 0.080421
1.382000 0.080602
1.383000 0.080418
1.384000 0.079890
1.385000 0.079108
1.386000 0.078197
1.387000 0.077248
1.388000 0.076309
1.389000 0.075395
1.390000 0.074504
1.391000 0.073786
1.392000 0.073304
1.393000 0.072958
1.394000 0.072626
1.395000 0.072205
1.396000 0.071633
1.397000 0.071271
1.398000 0.071193
1.399000 0.071407
1.400000 0.071866
1.401000 0.072498
1.402000 0.073238
1.403000 0.073945
1.404000 0.074470
1.405000 0.074844
1.406000 0.075082
1.407000 0.075171
1.408000 0.075096
1.409000 0.074864
1.410000 0.074501
1.411000 0.074033
1.412000 0.073465
1.413000 0.072777
1.414000 0.071993
1.415000 0.071280
1.416000 0.070642
1.417000 0.070081
1.418000 0.069612
1.419000 0.069255
1.420000 0.069035
1.421000 0.068967
1.422000 0.069060
1.423000 0.069329
1.424000 0.069774
1.425000 0.070013
1.426000 0.069999
1.427000 0.069784
1.428000 0.069464
1.429000 0.069153
1.430000 0.068954
1.431000 0.068954
1.432000 0.069200
1.433000 0.069711
1.434000 0.070488
1.435000 0.071512
1.436000 0.072553
1.437000 0.073593
1.438000 0.074592
1.439000 0.075508
1.440000 0.076297
1.441000 0.076903
1.442000 0.077254
1.443000 0.077290
1.444000 0.077510
1.445000 0.077924
1.446000 0.078375
1.447000 0.078768
1.448000 0.079020
1.449000 0.079051
1.450000 0.078862
1.451000 0.078910
1.452000 0.079198
1.453000 0.079734
1.454000 0.080531
1.455000 0.081570
1.456000 0.082773
1.457000 0.083895
1.458000 0.084940
1.459000 0.085938
1.460000 0.086922
1.461000 0.087909
1.462000 0.088794
1.463000 0.089540
1.464000 0.090163
1.465000 0.090707
1.466000 0.091228
1.467000 0.091776
1.468000 0.092370
1.469000 0.092974
1.470000 0.093509
1.471000 0.093885
1.472000 0.094013
1.473000 0.093824
1.474000 0.093529
1.475000 0.093510
1.476000 0.093693
1.477000 0.093998
1.478000 0.094341
1.479000 0.094661
1.480000 0.094849
1.481000 0.094725
1.482000 0.094604
1.483000 0.094520
1.484000 0.094426
1.485000 0.094255
1.486000 0.094064
1.487000 0.094186
1.488000 0.094629
1.489000 0.095332
1.490000 0.096214
1.491000 0.097105
1.492000 0.097851
1.493000 0.098367
1.494000 0.098585
1.495000 0.098467
1.496000 0.098071
1.497000 0.097863
1.498000 0.097828
1.499000 0.097934
1.500000 0.098143
1.501000 0.098416
1.502000 0.098692
1.503000 0.098612
1.504000 0.098539
1.505000 0.098605
1.506000 0.098784
1.507000 0.099026
1.508000 0.099267
1.509000 0.099452
1.510000 0.099583
1.511000 0.099718
1.512000 0.099917
1.513000 0.100208
1.514000 0.100517
1.515000 0.100808
1.516000 0.101043
1.517000 0.101194
1.518000 0.101244
1.519000 0.101186
1.520000 0.101031
1.521000 0.100909
1.522000 0.100851
1.523000 0.100854
1.524000 0.100923
1.525000 0.101070
1.526000 0.101299
1.527000 0.101603
1.528000 0.101962
1.529000 0.102337
1.530000 0.102670
1.531000 0.102920
1.532000 0.103078
1.533000 0.103166
1.534000 0.103220
1.535000 0.103273
1.536000 0.103345
1.537000 0.103447
1.538000 0.103582
1.539000 0.103752
1.540000 0.103959
1.541000 0.104201
1.542000 0.104477
1.543000 0.104784
1.544000 0.105113
1.545000 0.105449
1.546000 0.105770
1.547000 0.106059
1.548000 0.106306
1.549000 0.106511
1.550000 0.106689
1.551000 0.106858
1.552000 0.107031
1.553000 0.107215
1.554000 0.107411
1.555000 0.107616
1.556000 0.107829
1.557000 0.108044
1.558000 0.108258
1.559000 0.108464
1.560000 0.108663
1.561000 0.108858
1.562000 0.109050
1.563000 0.109240
1.564000 0.109420
1.565000 0.109591
1.566000 0.109758
1.567000 0.109928
1.568000 0.110108
1.569000 0.110302
1.570000 0.110500
1.571000 0.110666
1.572000 0.110755
1.573000 0.110761
1.574000 0.110855
1.575000 0.111010
1.576000 0.111187
1.577000 0.111354
1.578000 0.111492
1.579000 0.111595
1.580000 0.111666
1.581000 0.111715
1.582000 0.111749
1.583000 0.111772
1.584000 0.111789
1.585000 0.111782
1.586000 0.111766
1.587000 0.111744
1.588000 0.111717
1.589000 0.111683
1.590000 0.111644
1.591000 0.111598
1.592000 0.111546
1.593000 0.111488
1.594000 0.111428
1.595000 0.111372
1.596000 0.111329
1.597000 0.111295
1.598000 0.111265
1.599000 0.111233
1.600000 0.111196
1.601000 0.111153
1.602000 0.111104
1.603000 0.111050
1.604000 0.111001
1.605000 0.110963
1.606000 0.110940
1.607000 0.110936
1.608000 0.110950
1.609000 0.110979
1.610000 0.111019
1.611000 0.111066
1.612000 0.111117
1.613000 0.111174
1.614000 0.111221
1.615000 0.111255
1.616000 0.111278
1.617000 0.111294
1.618000 0.111307
1.619000 0.111319
1.620000 0.111332
1.621000 0.111348
1.622000 0.111369
1.623000 0.111393
1.624000 0.111415
1.625000 0.111414
1.626000 0.111415
1.627000 0.111461
1.628000 0.111540
1.629000 0.111627
1.630000 0.111704
1.631000 0.111762
1.632000 0.111795
1.633000 0.111801
1.634000 0.111781
1.635000 0.111737
1.636000 0.111693
1.637000 0.111662
1.638000 0.111640
1.639000 0.111625
1.640000 0.111616
1.641000 0.111611
1.642000 0.111608
1.643000 0.111602
1.644000 0.111594
1.645000 0.111584
1.646000 0.111577
1.647000 0.111575
1.648000 0.111583
1.649000 0.111600
1.650000 0.111625
1.651000 0.111653
1.652000 0.111678
1.653000 0.111696
1.654000 0.111701
1.655000 0.111692
1.656000 0.111680
1.657000 0.111669
1.658000 0.111657
1.659000 0.111644
1.660000 0.111627
1.661000 0.111605
1.662000 0.111589
1.663000 0.111587
1.664000 0.111600
1.665000 0.111627
1.666000 0.111662
1.667000 0.111699
1.668000 0.111734
1.669000 0.111763
1.670000 0.111786
1.671000 0.111801
1.672000 0.111806
1.673000 0.111803
1.674000 0.111792
1.675000 0.111777
1.676000 0.111767
1.677000 0.111761
1.678000 0.111758
1.679000 0.111757
1.680000 0.111755
1.681000 0.111752
1.682000 0.111747
1.683000 0.111740
1.684000 0.111731
1.685000 0.111717
1.686000 0.111697
1.687000 0.111670
1.688000 0.111633
1.689000 0.111586
1.690000 0.111529
1.691000 0.111468
1.692000 0.111407
1.693000 0.111346
1.694000 0.111284
1.695000 0.111222
1.696000 0.111158
1.697000 0.111091
1.698000 0.111020
1.699000 0.110941
1.700000 0.110851
1.701000 0.110748
1.702000 0.110630
1.703000 0.110492
1.704000 0.110334
1.705000 0.110151
1.706000 0.109943
1.707000 0.109704
1.708000 0.109429
1.709000 0.109116
1.710000 0.108769
1.711000 0.108406
1.712000 0.108061
1.713000 0.107786
1.714000 0.107646
1.715000 0.107695
1.716000 0.107545
1.717000 0.107194
1.718000 0.106687
1.719000 0.106091
1.720000 0.105470
1.721000 0.104880
1.722000 0.104357
1.723000 0.103923
1.724000 0.103589
1.725000 0.103361
1.726000 0.103240
1.727000 0.103225
1.728000 0.103310
1.729000 0.103313
1.730000 0.103240
1.731000 0.103096
1.732000 0.102885
1.733000 0.102611
1.734000 0.102289
1.735000 0.101941
1.736000 0.101597
1.737000 0.101296
1.738000 0.101082
1.739000 0.100997
1.740000 0.101072
1.741000 0.101252
1.742000 0.101274
1.743000 0.101139
1.744000 0.100857
1.745000 0.100456
1.746000 0.099986
1.747000 0.099555
1.748000 0.099131
1.749000 0.098670
1.750000 0.098224
1.751000 0.097810
1.752000 0.097431
1.753000 0.097099
1.754000 0.096829
1.755000 0.096627
1.756000 0.096484
1.757000 0.096382
1.758000 0.096299
1.759000 0.096252
1.760000 0.096363
1.761000 0.096484
1.762000 0.096591
1.763000 0.096663
1.764000 0.096689
1.765000 0.096664
1.766000 0.096591
1.767000 0.096472
1.768000 0.096314
1.769000 0.096139
1.770000 0.095984
1.771000 0.095885
1.772000 0.095856
1.773000 0.095905
1.774000 0.096048
1.775000 0.096208
1.776000 0.096224
1.777000 0.096104
1.778000 0.095890
1.779000 0.095651
1.780000 0.095450
1.781000 0.095332
1.782000 0.095309
1.783000 0.095355
1.784000 0.095410
1.785000 0.095398
1.786000 0.095318
1.787000 0.095251
1.788000 0.095231
1.789000 0.095299
1.790000 0.095483
1.791000 0.095620
1.792000 0.095601
1.793000 0.095467
1.794000 0.095289
1.795000 0.095156
1.796000 0.095194
1.797000 0.095066
1.798000 0.094751
1.799000 0.094288
1.800000 0.093753
1.801000 0.093222
1.802000 0.092751
1.803000 0.092361
1.804000 0.092030
1.805000 0.091731
1.806000 0.091471
1.807000 0.091284
1.808000 0.091202
1.809000 0.091223
1.810000 0.091310
1.811000 0.091414
1.812000 0.091489
1.813000 0.091520
1.814000 0.091518
1.815000 0.091529
1.816000 0.091555
1.817000 0.091611
1.818000 0.091694
1.819000 0.091773
1.820000 0.091793
1.821000 0.091712
1.822000 0.091536
1.823000 0.091314
1.824000 0.091103
1.825000 0.090915
1.826000 0.090692
1.827000 0.090456
1.828000 0.090484
1.829000 0.090713
1.830000 0.091022
1.831000 0.091281
1.832000 0.091387
1.833000 0.091261
1.834000 0.090838
1.835000 0.090079
1.836000 0.089002
1.837000 0.087853
1.838000 0.086787
1.839000 0.085813
1.840000 0.084947
1.841000 0.084229
1.842000 0.083955
1.843000 0.084153
1.844000 0.084250
1.845000 0.084206
1.846000 0.084064
1.847000 0.083855
1.848000 0.083626
1.849000 0.083448
1.850000 0.083501
1.851000 0.083374
1.852000 0.083025
1.853000 0.082430
1.854000 0.081599
1.855000 0.080580
1.856000 0.079432
1.857000 0.078243
1.858000 0.077195
1.859000 0.076311
1.860000 0.075567
1.861000 0.074908
1.862000 0.074278
1.863000 0.073654
1.864000 0.073025
1.865000 0.072362
1.866000 0.071621
1.867000 0.070826
1.868000 0.070035
1.869000 0.069278
1.870000 0.068610
1.871000 0.068095
1.872000 0.067800
1.873000 0.067780
1.874000 0.067818
1.875000 0.067547
1.876000 0.067057
1.877000 0.066558
1.878000 0.066173
1.879000 0.065989
1.880000 0.066067
1.881000 0.066420
1.882000 0.066726
1.883000 0.066943
1.884000 0.067102
1.885000 0.067239
1.886000 0.067276
1.887000 0.066973
1.888000 0.066460
1.889000 0.065706
1.890000 0.064887
1.891000 0.064273
1.892000 0.063963
1.893000 0.063978
1.894000 0.064299
1.895000 0.064879
1.896000 0.065576
1.897000 0.065850
1.898000 0.065686
1.899000 0.065130
1.900000 0.064848
1.901000 0.064910
1.902000 0.065354
1.903000 0.066176
1.904000 0.066897
1.905000 0.067355
1.906000 0.067557
1.907000 0.067537
1.908000 0.067356
1.909000 0.067071
1.910000 0.066820
1.911000 0.066780
1.912000 0.066827
1.913000 0.066872
1.914000 0.066853
1.915000 0.066744
1.916000 0.066554
1.917000 0.066298
1.918000 0.066209
1.919000 0.066342
1.920000 0.066670
1.921000 0.067023
1.922000 0.067321
1.923000 0.067496
1.924000 0.067472
1.925000 0.067193
1.926000 0.066942
1.927000 0.066760
1.928000 0.066595
1.929000 0.066414
1.930000 0.066208
1.931000 0.065975
1.932000 0.065710
1.933000 0.065589
1.934000 0.065571
1.935000 0.065539
1.936000 0.065405
1.937000 0.065268
1.938000 0.065176
1.939000 0.065057
1.940000 0.064844
1.941000 0.064521
1.942000 0.064254
1.943000 0.064027
1.944000 0.063827
1.945000 0.063652
1.946000 0.063518
1.947000 0.063441
1.948000 0.063436
1.949000 0.063500
1.950000 0.063622
1.951000 0.063785
1.952000 0.063977
1.953000 0.064192
1.954000 0.064432
1.955000 0.064699
1.956000 0.064991
1.957000 0.065292
1.958000 0.065567
1.959000 0.065769
1.960000 0.065871
1.961000 0.065869
1.962000 0.065787
1.963000 0.065663
1.964000 0.065530
1.965000 0.065405
1.966000 0.065292
1.967000 0.065190
1.968000 0.065093
1.969000 0.064995
1.970000 0.064906
1.971000 0.064862
1.972000 0.064911
1.973000 0.065059
1.974000 0.065136
1.975000 0.065172
1.976000 0.065204
1.977000 0.065256
1.978000 0.065340
1.979000 0.065455
1.980000 0.065596
1.981000 0.065755
1.982000 0.065924
1.983000 0.066099
1.984000 0.066277
1.985000 0.066455
1.986000 0.066620
1.987000 0.066768
1.988000 0.066904
1.989000 0.067031
1.990000 0.067150
1.991000 0.067264
1.992000 0.067373
1.993000 0.067482
1.994000 0.067591
1.995000 0.067701
1.996000 0.067803
1.997000 0.067893
1.998000 0.067973
1.999000 0.068045
2.000000 0.068110
2.001000 0.068170
2.002000 0.068226
2.003000 0.068281
2.004000 0.068328
2.005000 0.068365
2.006000 0.068389
2.007000 0.068399
2.008000 0.068395
2.009000 0.068379
2.010000 0.068356
2.011000 0.068332
2.012000 0.068310
2.013000 0.068292
2.014000 0.068275
2.015000 0.068260
2.016000 0.068245
2.017000 0.068232
2.018000 0.068221
2.019000 0.068214
2.020000 0.068210
2.021000 0.068208
2.022000 0.068203
2.023000 0.068194
2.024000 0.068183
2.025000 0.068190
2.026000 0.068187
2.027000 0.068124
2.028000 0.068015
2.029000 0.067882
2.030000 0.067756
2.031000 0.067655
2.032000 0.067583
2.033000 0.067540
2.034000 0.067522
2.035000 0.067523
2.036000 0.067517
2.037000 0.067500
2.038000 0.067480
2.039000 0.067459
2.040000 0.067429
2.041000 0.067389
2.042000 0.067381
2.043000 0.067411
2.044000 0.067470
2.045000 0.067544
2.046000 0.067612
2.047000 0.067660
2.048000 0.067686
2.049000 0.067693
2.050000 0.067685
2.051000 0.067675
2.052000 0.067686
2.053000 0.067738
2.054000 0.067840
2.055000 0.067988
2.056000 0.068154
2.057000 0.068318
2.058000 0.068470
2.059000 0.068607
2.060000 0.068724
2.061000 0.068823
2.062000 0.068894
2.063000 0.068932
2.064000 0.068935
2.065000 0.068905
2.066000 0.068850
2.067000 0.068808
2.068000 0.068781
2.069000 0.068769
2.070000 0.068772
2.071000 0.068788
2.072000 0.068815
2.073000 0.068851
2.074000 0.068892
2.075000 0.068934
2.076000 0.068966
2.077000 0.068989
2.078000 0.069004
2.079000 0.069012
2.080000 0.069016
2.081000 0.069017
2.082000 0.069017
2.083000 0.069017
2.084000 0.069017
2.085000 0.069020
2.086000 0.069026
2.087000 0.069036
2.088000 0.069048
2.089000 0.069060
2.090000 0.069069
2.091000 0.069070
2.092000 0.069062
2.093000 0.069050
2.094000 0.069032
2.095000 0.069013
2.096000 0.068996
2.097000 0.068981
2.098000 0.068968
2.099000 0.068958
2.100000 0.068949
2.101000 0.068940
2.102000 0.068932
2.103000 0.068924
2.104000 0.068917
2.105000 0.068910
2.106000 0.068903
2.107000 0.068896
2.108000 0.068888
2.109000 0.068879
2.110000 0.068870
2.111000 0.068860
2.112000 0.068848
2.113000 0.068836
2.114000 0.068825
2.115000 0.068814
2.116000 0.068804
2.117000 0.068792
2.118000 0.068777
2.119000 0.068755
2.120000 0.068729
2.121000 0.068697
2.122000 0.068662
2.123000 0.068622
2.124000 0.068576
2.125000 0.068526
2.126000 0.068473
2.127000 0.068415
2.128000 0.068352
2.129000 0.068281
2.130000 0.068203
2.131000 0.068120
2.132000 0.068038
2.133000 0.067962
2.134000 0.067894
2.135000 0.067829
2.136000 0.067762
2.137000 0.067683
2.138000 0.067582
2.139000 0.067454
2.140000 0.067299
2.141000 0.067131
2.142000 0.066970
2.143000 0.066839
2.144000 0.066760
2.145000 0.066743
2.146000 0.066777
2.147000 0.066777
2.148000 0.066776
2.149000 0.066806
2.150000 0.066804
2.151000 0.066751
2.152000 0.066657
2.153000 0.066536
2.154000 0.066404
2.155000 0.066273
2.156000 0.066161
2.157000 0.066085
2.158000 0.066069
2.159000 0.066096
2.160000 0.066025
2.161000 0.065862
2.162000 0.065625
2.163000 0.065344
2.164000 0.065051
2.165000 0.064776
2.166000 0.064539
2.167000 0.064341
2.168000 0.064171
2.169000 0.064012
2.170000 0.063844
2.171000 0.063662
2.172000 0.063470
2.173000 0.063284
2.174000 0.063109
2.175000 0.062942
2.176000 0.062769
2.177000 0.062578
2.178000 0.062364
2.179000 0.062136
2.180000 0.061916
2.181000 0.061728
2.182000 0.061592
2.183000 0.061518
2.184000 0.061513
2.185000 0.061581
2.186000 0.061674
2.187000 0.061703
2.188000 0.061673
2.189000 0.061600
2.190000 0.061509
2.191000 0.061431
2.192000 0.061394
2.193000 0.061412
2.194000 0.061488
2.195000 0.061609
2.196000 0.061717
2.197000 0.061812
2.198000 0.061881
2.199000 0.061907
2.200000 0.061886
2.201000 0.061817
2.202000 0.061701
2.203000 0.061525
2.204000 0.061274
2.205000 0.060933
2.206000 0.060661
2.207000 0.060494
2.208000 0.060421
2.209000 0.060434
2.210000 0.060534
2.211000 0.060730
2.212000 0.061035
2.213000 0.061459
2.214000 0.061930
2.215000 0.062205
2.216000 0.062272
2.217000 0.062145
2.218000 0.061868
2.219000 0.061505
2.220000 0.061117
2.221000 0.060822
2.222000 0.060648
2.223000 0.060550
2.224000 0.060491
2.225000 0.060487
2.226000 0.060604
2.227000 0.060802
2.228000 0.060761
2.229000 0.060480
2.230000 0.060022
2.231000 0.059471
2.232000 0.058911
2.233000 0.058419
2.234000 0.058066
2.235000 0.057900
2.236000 0.057938
2.237000 0.058011
2.238000 0.058054
2.239000 0.058139
2.240000 0.058309
2.241000 0.058558
2.242000 0.058593
2.243000 0.058374
2.244000 0.058287
2.245000 0.058382
2.246000 0.058667
2.247000 0.059123
2.248000 0.059714
2.249000 0.060393
2.250000 0.060955
2.251000 0.061349
2.252000 0.061634
2.253000 0.061863
2.254000 0.062066
2.255000 0.062249
2.256000 0.062425
2.257000 0.062578
2.258000 0.062577
2.259000 0.062426
2.260000 0.062158
2.261000 0.061830
2.262000 0.061557
2.263000 0.061417
2.264000 0.061433
2.265000 0.061616
2.266000 0.061960
2.267000 0.062355
2.268000 0.062646
2.269000 0.062745
2.270000 0.062578
2.271000 0.062598
2.272000 0.062894
2.273000 0.063417
2.274000 0.064096
2.275000 0.064860
2.276000 0.065649
2.277000 0.066304
2.278000 0.066782
2.279000 0.067073
2.280000 0.067171
2.281000 0.067091
2.282000 0.066879
2.283000 0.066604
2.284000 0.066339
2.285000 0.066134
2.286000 0.066046
2.287000 0.066128
2.288000 0.066268
2.289000 0.066585
2.290000 0.066987
2.291000 0.067266
2.292000 0.067347
2.293000 0.067214
2.294000 0.066862
2.295000 0.066305
2.296000 0.065609
2.297000 0.065217
2.298000 0.065172
2.299000 0.065410
2.300000 0.065262
2.301000 0.064758
2.302000 0.064263
2.303000 0.063845
2.304000 0.063551
2.305000 0.063397
2.306000 0.063378
2.307000 0.063465
2.308000 0.063629
2.309000 0.063845
2.310000 0.063962
2.311000 0.063755
2.312000 0.063628
2.313000 0.063646
2.314000 0.063877
2.315000 0.064368
2.316000 0.065137
2.317000 0.066160
2.318000 0.067154
2.319000 0.067995
2.320000 0.068625
2.321000 0.069008
2.322000 0.069149
2.323000 0.069095
2.324000 0.068922
2.325000 0.069058
2.326000 0.069257
2.327000 0.069407
2.328000 0.069485
2.329000 0.069479
2.330000 0.069396
2.331000 0.069278
2.332000 0.069311
2.333000 0.069296
2.334000 0.069160
2.335000 0.069120
2.336000 0.069310
2.337000 0.069634
2.338000 0.070029
2.339000 0.070545
2.340000 0.071217
2.341000 0.072024
2.342000 0.072746
2.343000 0.073337
2.344000 0.073742
2.345000 0.073912
2.346000 0.073838
2.347000 0.073593
2.348000 0.073409
2.349000 0.073184
2.350000 0.072894
2.351000 0.072727
2.352000 0.072659
2.353000 0.072622
2.354000 0.072547
2.355000 0.072385
2.356000 0.072119
2.357000 0.071776
2.358000 0.071435
2.359000 0.071182
2.360000 0.071059
2.361000 0.071050
2.362000 0.071094
2.363000 0.071101
2.364000 0.071110
2.365000 0.071273
2.366000 0.071579
2.367000 0.072001
2.368000 0.072493
2.369000 0.072982
2.370000 0.073390
2.371000 0.073644
2.372000 0.073701
2.373000 0.073559
2.374000 0.073512
2.375000 0.073541
2.376000 0.073580
2.377000 0.073547
2.378000 0.073361
2.379000 0.073271
2.380000 0.073359
2.381000 0.073553
2.382000 0.073759
2.383000 0.073891
2.384000 0.073882
2.385000 0.073702
2.386000 0.073723
2.387000 0.073942
2.388000 0.074345
2.389000 0.074915
2.390000 0.075625
2.391000 0.076426
2.392000 0.077240
2.393000 0.077982
2.394000 0.078562
2.395000 0.078889
2.396000 0.078904
2.397000 0.078977
2.398000 0.079267
2.399000 0.079677
2.400000 0.080114
2.401000 0.080497
2.402000 0.080778
2.403000 0.080940
2.404000 0.080977
2.405000 0.080964
2.406000 0.081068
2.407000 0.081278
2.408000 0.081572
2.409000 0.081926
2.410000 0.082315
2.411000 0.082716
2.412000 0.083109
2.413000 0.083478
2.414000 0.083817
2.415000 0.084127
2.416000 0.084417
2.417000 0.084704
2.418000 0.084992
2.419000 0.085283
2.420000 0.085572
2.421000 0.085859
2.422000 0.086141
2.423000 0.086419
2.424000 0.086693
2.425000 0.086961
2.426000 0.087219
2.427000 0.087460
2.428000 0.087682
2.429000 0.087882
2.430000 0.088055
2.431000 0.088199
2.432000 0.088321
2.433000 0.088429
2.434000 0.088534
2.435000 0.088642
2.436000 0.088759
2.437000 0.088875
2.438000 0.088984
2.439000 0.089084
2.440000 0.089181
2.441000 0.089280
2.442000 0.089340
2.443000 0.089360
2.444000 0.089348
2.445000 0.089320
2.446000 0.089292
2.447000 0.089276
2.448000 0.089274
2.449000 0.089287
2.450000 0.089311
2.451000 0.089336
2.452000 0.089341
2.453000 0.089305
2.454000 0.089221
2.455000 0.089094
2.456000 0.088941
2.457000 0.088780
2.458000 0.088626
2.459000 0.088490
2.460000 0.088377
2.461000 0.088287
2.462000 0.088216
2.463000 0.088161
2.464000 0.088126
2.465000 0.088115
2.466000 0.088127
2.467000 0.088125
2.468000 0.088110
2.469000 0.088079
2.470000 0.088037
2.471000 0.087998
2.472000 0.087959
2.473000 0.087921
2.474000 0.087882
2.475000 0.087843
2.476000 0.087806
2.477000 0.087776
2.478000 0.087751
2.479000 0.087730
2.480000 0.087719
2.481000 0.087719
2.482000 0.087725
2.483000 0.087736
2.484000 0.087752
2.485000 0.087776
2.486000 0.087811
2.487000 0.087855
2.488000 0.087904
2.489000 0.087956
2.490000 0.088010
2.491000 0.088067
2.492000 0.088128
2.493000 0.088192
2.494000 0.088264
2.495000 0.088328
2.496000 0.088364
2.497000 0.088363
2.498000 0.088349
2.499000 0.088342
2.500000 0.088328
2.501000 0.088303
2.502000 0.088272
2.503000 0.088250
2.504000 0.088234
2.505000 0.088221
2.506000 0.088207
2.507000 0.088193
2.508000 0.088177
2.509000 0.088157
2.510000 0.088132
2.511000 0.088100
2.512000 0.088064
2.513000 0.088025
2.514000 0.087983
2.515000 0.087942
2.516000 0.087904
2.517000 0.087870
2.518000 0.087840
2.519000 0.087816
2.520000 0.087799
2.521000 0.087787
2.522000 0.087774
2.523000 0.087758
2.524000 0.087742
2.525000 0.087725
2.526000 0.087710
2.527000 0.087695
2.528000 0.087679
2.529000 0.087663
2.530000 0.087647
2.531000 0.087627
2.532000 0.087604
2.533000 0.087577
2.534000 0.087546
2.535000 0.087513
2.536000 0.087477
2.537000 0.087441
2.538000 0.087408
2.539000 0.087379
2.540000 0.087356
2.541000 0.087341
2.542000 0.087334
2.543000 0.087335
2.544000 0.087342
2.545000 0.087350
2.546000 0.087357
2.547000 0.087361
2.548000 0.087361
2.549000 0.087357
2.550000 0.087353
2.551000 0.087348
2.552000 0.087344
2.553000 0.087342
2.554000 0.087341
2.555000 0.087340
2.556000 0.087339
2.557000 0.087335
2.558000 0.087328
2.559000 0.087317
2.560000 0.087300
2.561000 0.087277
2.562000 0.087253
2.563000 0.087232
2.564000 0.087216
2.565000 0.087207
2.566000 0.087203
2.567000 0.087201
2.568000 0.087201
2.569000 0.087199
2.570000 0.087196
2.571000 0.087189
2.572000 0.087177
2.573000 0.087161
2.574000 0.087138
2.575000 0.087110
2.576000 0.087075
2.577000 0.087034
2.578000 0.086984
2.579000 0.086925
2.580000 0.086856
2.581000 0.086779
2.582000 0.086695
2.583000 0.086606
2.584000 0.086511
2.585000 0.086411
2.586000 0.086303
2.587000 0.086187
2.588000 0.086060
2.589000 0.085929
2.590000 0.085800
2.591000 0.085682
2.592000 0.085578
2.593000 0.085484
2.594000 0.085391
2.595000 0.085287
2.596000 0.085161
2.597000 0.085008
2.598000 0.084830
2.599000 0.084630
2.600000 0.084414
2.601000 0.084192
2.602000 0.083988
2.603000 0.083828
2.604000 0.083743
2.605000 0.083754
2.606000 0.083702
2.607000 0.083548
2.608000 0.083299
2.609000 0.082965
2.610000 0.082564
2.611000 0.082115
2.612000 0.081641
2.613000 0.081170
2.614000 0.080733
2.615000 0.080364
2.616000 0.080088
2.617000 0.079910
2.618000 0.079827
2.619000 0.079832
2.620000 0.079914
2.621000 0.079984
2.622000 0.080002
2.623000 0.079977
2.624000 0.079921
2.625000 0.079845
2.626000 0.079760
2.627000 0.079677
2.628000 0.079603
2.629000 0.079547
2.630000 0.079513
2.631000 0.079503
2.632000 0.079516
2.633000 0.079546
2.634000 0.079578
2.635000 0.079578
2.636000 0.079512
2.637000 0.079372
2.638000 0.079217
2.639000 0.079025
2.640000 0.078796
2.641000 0.078556
2.642000 0.078437
2.643000 0.078500
2.644000 0.078371
2.645000 0.078019
2.646000 0.077456
2.647000 0.076729
2.648000 0.076010
2.649000 0.075423
2.650000 0.074983
2.651000 0.074671
2.652000 0.074456
2.653000 0.074313
2.654000 0.074222
2.655000 0.074171
2.656000 0.074147
2.657000 0.074136
2.658000 0.074125
2.659000 0.074114
2.660000 0.074115
2.661000 0.074156
2.662000 0.074211
2.663000 0.074246
2.664000 0.074228
2.665000 0.074116
2.666000 0.073882
2.667000 0.073547
2.668000 0.073177
2.669000 0.072965
2.670000 0.073045
2.671000 0.072978
2.672000 0.072673
2.673000 0.072174
2.674000 0.071547
2.675000 0.070856
2.676000 0.070164
2.677000 0.069519
2.678000 0.068946
2.679000 0.068451
2.680000 0.068063
2.681000 0.067792
2.682000 0.067610
2.683000 0.067495
2.684000 0.067447
2.685000 0.067505
2.686000 0.067681
2.687000 0.067864
2.688000 0.068042
2.689000 0.068195
2.690000 0.068319
2.691000 0.068432
2.692000 0.068571
2.693000 0.068785
2.694000 0.069117
2.695000 0.069590
2.696000 0.070178
2.697000 0.070497
2.698000 0.070571
2.699000 0.070513
2.700000 0.070448
2.701000 0.070415
2.702000 0.070219
2.703000 0.069839
2.704000 0.069296
2.705000 0.068645
2.706000 0.067959
2.707000 0.067327
2.708000 0.066836
2.709000 0.066549
2.710000 0.066495
2.711000 0.066666
2.712000 0.066700
2.713000 0.066574
2.714000 0.066275
2.715000 0.065804
2.716000 0.065159
2.717000 0.064332
2.718000 0.063310
2.719000 0.062364
2.720000 0.061787
2.721000 0.061635
2.722000 0.061888
2.723000 0.062483
2.724000 0.063332
2.725000 0.063976
2.726000 0.064302
2.727000 0.064337
2.728000 0.064136
2.729000 0.063816
2.730000 0.063873
2.731000 0.064265
2.732000 0.064748
2.733000 0.065235
2.734000 0.065714
2.735000 0.065980
2.736000 0.065921
2.737000 0.065562
2.738000 0.065266
2.739000 0.065047
2.740000 0.064910
2.741000 0.064839
2.742000 0.064828
2.743000 0.064899
2.744000 0.065107
2.745000 0.065511
2.746000 0.066116
2.747000 0.066812
2.748000 0.067308
2.749000 0.067649
2.750000 0.067826
2.751000 0.067643
2.752000 0.067533
2.753000 0.067524
2.754000 0.067620
2.755000 0.067806
2.756000 0.068050
2.757000 0.068305
2.758000 0.068511
2.759000 0.068610
2.760000 0.068585
2.761000 0.068463
2.762000 0.068311
2.763000 0.068299
2.764000 0.068348
2.765000 0.068290
2.766000 0.068132
2.767000 0.067879
2.768000 0.067547
2.769000 0.067160
2.770000 0.066752
2.771000 0.066376
2.772000 0.066294
2.773000 0.066480
2.774000 0.066600
2.775000 0.066638
2.776000 0.066655
2.777000 0.066753
2.778000 0.067031
2.779000 0.067236
2.780000 0.067261
2.781000 0.067144
2.782000 0.066936
2.783000 0.066697
2.784000 0.066536
2.785000 0.066685
2.786000 0.066772
2.787000 0.066771
2.788000 0.066641
2.789000 0.066343
2.790000 0.065875
2.791000 0.065298
2.792000 0.064714
2.793000 0.064226
2.794000 0.063939
2.795000 0.063947
2.796000 0.064302
2.797000 0.064627
2.798000 0.064753
2.799000 0.064758
2.800000 0.064715
2.801000 0.064680
2.802000 0.064679
2.803000 0.064709
2.804000 0.064748
2.805000 0.064732
2.806000 0.064774
2.807000 0.064905
2.808000 0.065149
2.809000 0.065514
2.810000 0.065972
2.811000 0.066468
2.812000 0.066936
2.813000 0.067304
2.814000 0.067506
2.815000 0.067507
2.816000 0.067307
2.817000 0.067064
2.818000 0.067023
2.819000 0.067207
2.820000 0.067629
2.821000 0.068263
2.822000 0.069052
2.823000 0.069921
2.824000 0.070787
2.825000 0.071569
2.826000 0.072186
2.827000 0.072577
2.828000 0.072706
2.829000 0.072565
2.830000 0.072605
2.831000 0.072893
2.832000 0.073345
2.833000 0.073862
2.834000 0.074359
2.835000 0.074779
2.836000 0.075096
2.837000 0.075296
2.838000 0.075378
2.839000 0.075339
2.840000 0.075282
2.841000 0.075347
2.842000 0.075501
2.843000 0.075708
2.844000 0.075950
2.845000 0.076216
2.846000 0.076491
2.847000 0.076764
2.848000 0.077026
2.849000 0.077274
2.850000 0.077517
2.851000 0.077755
2.852000 0.077975
2.853000 0.078149
2.854000 0.078243
2.855000 0.078230
2.856000 0.078331
2.857000 0.078567
2.858000 0.078927
2.859000 0.079388
2.860000 0.079921
2.861000 0.080485
2.862000 0.081042
2.863000 0.081560
2.864000 0.082009
2.865000 0.082384
2.866000 0.082706
2.867000 0.083007
2.868000 0.083321
2.869000 0.083680
2.870000 0.084099
2.871000 0.084575
2.872000 0.085116
2.873000 0.085721
2.874000 0.086359
2.875000 0.086963
2.876000 0.087463
2.877000 0.087822
2.878000 0.088052
2.879000 0.088190
2.880000 0.088266
2.881000 0.088293
2.882000 0.088274
2.883000 0.088272
2.884000 0.088268
2.885000 0.088229
2.886000 0.088223
2.887000 0.088281
2.888000 0.088411
2.889000 0.088598
2.890000 0.088817
2.891000 0.089037
2.892000 0.089215
2.893000 0.089296
2.894000 0.089246
2.895000 0.089278
2.896000 0.089431
2.897000 0.089688
2.898000 0.090006
2.899000 0.090354
2.900000 0.090734
2.901000 0.091122
2.902000 0.091474
2.903000 0.091749
2.904000 0.091943
2.905000 0.092060
2.906000 0.092106
2.907000 0.092093
2.908000 0.092113
2.909000 0.092179
2.910000 0.092283
2.911000 0.092422
2.912000 0.092587
2.913000 0.092770
2.914000 0.092967
2.915000 0.093171
2.916000 0.093377
2.917000 0.093586
2.918000 0.093799
2.919000 0.094016
2.920000 0.094240
2.921000 0.094474
2.922000 0.094724
2.923000 0.094995
2.924000 0.095288
2.925000 0.095593
2.926000 0.095892
2.927000 0.096160
2.928000 0.096366
2.929000 0.096464
2.930000 0.096483
2.931000 0.096642
2.932000 0.096913
2.933000 0.097256
2.934000 0.097623
2.935000 0.097973
2.936000 0.098278
2.937000 0.098524
2.938000 0.098702
2.939000 0.098811
2.940000 0.098854
2.941000 0.098838
2.942000 0.098838
2.943000 0.098868
2.944000 0.098927
2.945000 0.099012
2.946000 0.099125
2.947000 0.099260
2.948000 0.099404
2.949000 0.099542
2.950000 0.099662
2.951000 0.099764
2.952000 0.099854
2.953000 0.099947
2.954000 0.100052
2.955000 0.100176
2.956000 0.100314
2.957000 0.100451
2.958000 0.100572
2.959000 0.100678
2.960000 0.100778
2.961000 0.100874
2.962000 0.100947
2.963000 0.100982
2.964000 0.100982
2.965000 0.100974
2.966000 0.100976
2.967000 0.100968
2.968000 0.100922
2.969000 0.100905
2.970000 0.100935
2.971000 0.100983
2.972000 0.101012
2.973000 0.101000
2.974000 0.101013
2.975000 0.101081
2.976000 0.101204
2.977000 0.101385
2.978000 0.101615
2.979000 0.101864
2.980000 0.102081
2.981000 0.102183
2.982000 0.102264
2.983000 0.102533
2.984000 0.102916
2.985000 0.103316
2.986000 0.103651
2.987000 0.103876
2.988000 0.103989
2.989000 0.104005
2.990000 0.104032
2.991000 0.104104
2.992000 0.104200
2.993000 0.104305
2.994000 0.104413
2.995000 0.104523
2.996000 0.104638
2.997000 0.104764
2.998000 0.104904
2.999000 0.105057
3.000000 0.105224
3.001000 0.105401
3.002000 0.105583
3.003000 0.105763
3.004000 0.105938
3.005000 0.106108
3.006000 0.106281
3.007000 0.106459
3.008000 0.106645
3.009000 0.106833
3.010000 0.107021
3.011000 0.107208
3.012000 0.107397
3.013000 0.107591
3.014000 0.107788
3.015000 0.107973
3.016000 0.108111
3.017000 0.108161
3.018000 0.108108
3.019000 0.108044
3.020000 0.108016
3.021000 0.107986
3.022000 0.107929
3.023000 0.107832
3.024000 0.107697
3.025000 0.107581
3.026000 0.107483
3.027000 0.107404
3.028000 0.107342
3.029000 0.107296
3.030000 0.107261
3.031000 0.107236
3.032000 0.107225
3.033000 0.107236
3.034000 0.107280
3.035000 0.107360
3.036000 0.107454
3.037000 0.107510
3.038000 0.107480
3.039000 0.107490
3.040000 0.107539
3.041000 0.107638
3.042000 0.107721
3.043000 0.107746
3.044000 0.107721
3.045000 0.107668
3.046000 0.107621
3.047000 0.107613
3.048000 0.107562
3.049000 0.107445
3.050000 0.107270
3.051000 0.107052
3.052000 0.106810
3.053000 0.106564
3.054000 0.106333
3.055000 0.106135
3.056000 0.105983
3.057000 0.105887
3.058000 0.105849
3.059000 0.105857
3.060000 0.105887
3.061000 0.105908
3.062000 0.105894
3.063000 0.105834
3.064000 0.105739
3.065000 0.105634
3.066000 0.105551
3.067000 0.105517
3.068000 0.105550
3.069000 0.105561
3.070000 0.105509
3.071000 0.105412
3.072000 0.105295
3.073000 0.105184
3.074000 0.105104
3.075000 0.105070
3.076000 0.105085
3.077000 0.105140
3.078000 0.105228
3.079000 0.105344
3.080000 0.105457
3.081000 0.105549
3.082000 0.105629
3.083000 0.105698
3.084000 0.105748
3.085000 0.105755
3.086000 0.105689
3.087000 0.105525
3.088000 0.105256
3.089000 0.104884
3.090000 0.104419
3.091000 0.103866
3.092000 0.103232
3.093000 0.102533
3.094000 0.101809
3.095000 0.101115
3.096000 0.100511
3.097000 0.100047
3.098000 0.099745
3.099000 0.099601
3.100000 0.099592
3.101000 0.099676
3.102000 0.099731
3.103000 0.099784
3.104000 0.099854
3.105000 0.099958
3.106000 0.100108
3.107000 0.100304
3.108000 0.100525
3.109000 0.100746
3.110000 0.100954
3.111000 0.101151
3.112000 0.101353
3.113000 0.101572
3.114000 0.101805
3.115000 0.102033
3.116000 0.102246
3.117000 0.102449
3.118000 0.102666
3.119000 0.102640
3.120000 0.102369
3.121000 0.102102
3.122000 0.101868
3.123000 0.101684
3.124000 0.101550
3.125000 0.101463
3.126000 0.101439
3.127000 0.101513
3.128000 0.101737
3.129000 0.102112
3.130000 0.102237
3.131000 0.102194
3.132000 0.102078
3.133000 0.101981
3.134000 0.101979
3.135000 0.102124
3.136000 0.102434
3.137000 0.102849
3.138000 0.102992
3.139000 0.102854
3.140000 0.102459
3.141000 0.101855
3.142000 0.101105
3.143000 0.100316
3.144000 0.099614
3.145000 0.099002
3.146000 0.098487
3.147000 0.098097
3.148000 0.097880
3.149000 0.097880
3.150000 0.098112
3.151000 0.098562
3.152000 0.098789
3.153000 0.098793
3.154000 0.098600
3.155000 0.098249
3.156000 0.097780
3.157000 0.097470
3.158000 0.097383
3.159000 0.097523
3.160000 0.097867
3.161000 0.098366
3.162000 0.098957
3.163000 0.099493
3.164000 0.099966
3.165000 0.100379
3.166000 0.100739
3.167000 0.101060
3.168000 0.101352
3.169000 0.101627
3.170000 0.101887
3.171000 0.102112
3.172000 0.102060
3.173000 0.101972
3.174000 0.102006
3.175000 0.102183
3.176000 0.102474
3.177000 0.102806
3.178000 0.103090
3.179000 0.103251
3.180000 0.103254
3.181000 0.103116
3.182000 0.102902
3.183000 0.102927
3.184000 0.103123
3.185000 0.103290
3.186000 0.103441
3.187000 0.103606
3.188000 0.103815
3.189000 0.104084
3.190000 0.104397
3.191000 0.104703
3.192000 0.104937
3.193000 0.105040
3.194000 0.104959
3.195000 0.104668
3.196000 0.104217
3.197000 0.103916
3.198000 0.103764
3.199000 0.103769
3.200000 0.103949
3.201000 0.104315
3.202000 0.104872
3.203000 0.105607
3.204000 0.106488
3.205000 0.107423
3.206000 0.108044
3.207000 0.108245
3.208000 0.107927
3.209000 0.107292
3.210000 0.106893
3.211000 0.106726
3.212000 0.106789
3.213000 0.107082
3.214000 0.107596
3.215000 0.108279
3.216000 0.109037
3.217000 0.109612
3.218000 0.109684
3.219000 0.109193
3.220000 0.108765
3.221000 0.108438
3.222000 0.108233
3.223000 0.108178
3.224000 0.108296
3.225000 0.108606
3.226000 0.109138
3.227000 0.109916
3.228000 0.110955
3.229000 0.112257
3.230000 0.113373
3.231000 0.114225
3.232000 0.114866
3.233000 0.115324
3.234000 0.115599
3.235000 0.115655
3.236000 0.115437
3.237000 0.115299
3.238000 0.115630
3.239000 0.116348
3.240000 0.117263
3.241000 0.118160
3.242000 0.119029
3.243000 0.119883
3.244000 0.120718
3.245000 0.121509
3.246000 0.122247
3.247000 0.122943
3.248000 0.123601
3.249000 0.124189
3.250000 0.124653
3.251000 0.124935
3.252000 0.124998
3.253000 0.124826
3.254000 0.124972
3.255000 0.125537
3.256000 0.126257
3.257000 0.127039
3.258000 0.127814
3.259000 0.128531
3.260000 0.129153
3.261000 0.129649
3.262000 0.129977
3.263000 0.130085
3.264000 0.129929
3.265000 0.129577
3.266000 0.129523
3.267000 0.129641
3.268000 0.129802
3.269000 0.129885
3.270000 0.129779
3.271000 0.129387
3.272000 0.129026
3.273000 0.128896
3.274000 0.128981
3.275000 0.129269
3.276000 0.129741
3.277000 0.130342
3.278000 0.130976
3.279000 0.131521
3.280000 0.131875
3.281000 0.132008
3.282000 0.132058
3.283000 0.132286
3.284000 0.132720
3.285000 0.133413
3.286000 0.134306
3.287000 0.135344
3.288000 0.136458
3.289000 0.137587
3.290000 0.138685
3.291000 0.139718
3.292000 0.140685
3.293000 0.141595
3.294000 0.142421
3.295000 0.142887
3.296000 0.142921
3.297000 0.142749
3.298000 0.142839
3.299000 0.143161
3.300000 0.143681
3.301000 0.144378
3.302000 0.145222
3.303000 0.146163
3.304000 0.147142
3.305000 0.148113
3.306000 0.149056
3.307000 0.149969
3.308000 0.150754
3.309000 0.151376
3.310000 0.151814
3.311000 0.152078
3.312000 0.152216
3.313000 0.152308
3.314000 0.152446
3.315000 0.152691
3.316000 0.153065
3.317000 0.153549
3.318000 0.154073
3.319000 0.154549
3.320000 0.154883
3.321000 0.154980
3.322000 0.154759
3.323000 0.154743
3.324000 0.154983
3.325000 0.155427
3.326000 0.156023
3.327000 0.156706
3.328000 0.157424
3.329000 0.158132
3.330000 0.158722
3.331000 0.158928
3.332000 0.158783
3.333000 0.158470
3.334000 0.158260
3.335000 0.158121
3.336000 0.158015
3.337000 0.157906
3.338000 0.157768
3.339000 0.157692
3.340000 0.157763
3.341000 0.157925
3.342000 0.158044
3.343000 0.158048
3.344000 0.157984
3.345000 0.158027
3.346000 0.158182
3.347000 0.158447
3.348000 0.158817
3.349000 0.159280
3.350000 0.159792
3.351000 0.160281
3.352000 0.160682
3.353000 0.160966
3.354000 0.161147
3.355000 0.161278
3.356000 0.161414
3.357000 0.161587
3.358000 0.161799
3.359000 0.162040
3.360000 0.162294
3.361000 0.162565
3.362000 0.162885
3.363000 0.163273
3.364000 0.163686
3.365000 0.164035
3.366000 0.164257
3.367000 0.164358
3.368000 0.164381
3.369000 0.164393
3.370000 0.164415
3.371000 0.164449
3.372000 0.164504
3.373000 0.164585
3.374000 0.164611
3.375000 0.164549
3.376000 0.164423
3.377000 0.164269
3.378000 0.164090
3.379000 0.163913
3.380000 0.163782
3.381000 0.163774
3.382000 0.163791
3.383000 0.163619
3.384000 0.163332
3.385000 0.163025
3.386000 0.162781
3.387000 0.162648
3.388000 0.162629
3.389000 0.162708
3.390000 0.162775
3.391000 0.162794
3.392000 0.162785
3.393000 0.162760
3.394000 0.162728
3.395000 0.162691
3.396000 0.162646
3.397000 0.162588
3.398000 0.162512
3.399000 0.162416
3.400000 0.162300
3.401000 0.162166
3.402000 0.162021
3.403000 0.161874
3.404000 0.161730
3.405000 0.161590
3.406000 0.161448
3.407000 0.161300
3.408000 0.161145
3.409000 0.160988
3.410000 0.160831
3.411000 0.160673
3.412000 0.160509
3.413000 0.160336
3.414000 0.160152
3.415000 0.159973
3.416000 0.159834
3.417000 0.159776
3.418000 0.159821
3.419000 0.159880
3.420000 0.159911
3.421000 0.159953
3.422000 0.160021
3.423000 0.160113
3.424000 0.160212
3.425000 0.160258
3.426000 0.160259
3.427000 0.160218
3.428000 0.160140
3.429000 0.160027
3.430000 0.159888
3.431000 0.159730
3.432000 0.159561
3.433000 0.159385
3.434000 0.159208
3.435000 0.159044
3.436000 0.158923
3.437000 0.158880
3.438000 0.158889
3.439000 0.158851
3.440000 0.158797
3.441000 0.158743
3.442000 0.158692
3.443000 0.158650
3.444000 0.158611
3.445000 0.158568
3.446000 0.158532
3.447000 0.158556
3.448000 0.158621
3.449000 0.158675
3.450000 0.158713
3.451000 0.158731
3.452000 0.158726
3.453000 0.158695
3.454000 0.158661
3.455000 0.158640
3.456000 0.158627
3.457000 0.158621
3.458000 0.158625
3.459000 0.158640
3.460000 0.158675
3.461000 0.158735
3.462000 0.158807
3.463000 0.158852
3.464000 0.158846
3.465000 0.158785
3.466000 0.158777
3.467000 0.158841
3.468000 0.158989
3.469000 0.159213
3.470000 0.159467
3.471000 0.159691
3.472000 0.159842
3.473000 0.159907
3.474000 0.159890
3.475000 0.159807
3.476000 0.159689
3.477000 0.159595
3.478000 0.159517
3.479000 0.159447
3.480000 0.159381
3.481000 0.159317
3.482000 0.159251
3.483000 0.159182
3.484000 0.159107
3.485000 0.159025
3.486000 0.158934
3.487000 0.158834
3.488000 0.158726
3.489000 0.158607
3.490000 0.158474
3.491000 0.158328
3.492000 0.158185
3.493000 0.158067
3.494000 0.157994
3.495000 0.157960
3.496000 0.157950
3.497000 0.157947
3.498000 0.157934
3.499000 0.157899
3.500000 0.157840
3.501000 0.157756
3.502000 0.157647
3.503000 0.157515
3.504000 0.157358
3.505000 0.157176
3.506000 0.156970
3.507000 0.156741
3.508000 0.156486
3.509000 0.156203
3.510000 0.155886
3.511000 0.155529
3.512000 0.155127
3.513000 0.154681
3.514000 0.154199
3.515000 0.153699
3.516000 0.153213
3.517000 0.152789
3.518000 0.152491
3.519000 0.152382
3.520000 0.152254
3.521000 0.151884
3.522000 0.151312
3.523000 0.150611
3.524000 0.149868
3.525000 0.149163
3.526000 0.148550
3.527000 0.148047
3.528000 0.147639
3.529000 0.147296
3.530000 0.146979
3.531000 0.146652
3.532000 0.146293
3.533000 0.145899
3.534000 0.145483
3.535000 0.145067
3.536000 0.144678
3.537000 0.144340
3.538000 0.144074
3.539000 0.143893
3.540000 0.143805
3.541000 0.143814
3.542000 0.143918
3.543000 0.144061
3.544000 0.144138
3.545000 0.144154
3.546000 0.144108
3.547000 0.143999
3.548000 0.143828
3.549000 0.143592
3.550000 0.143297
3.551000 0.142964
3.552000 0.142615
3.553000 0.142273
3.554000 0.142026
3.555000 0.141954
3.556000 0.142056
3.557000 0.142073
3.558000 0.141932
3.559000 0.141619
3.560000 0.141148
3.561000 0.140607
3.562000 0.140092
3.563000 0.139627
3.564000 0.139221
3.565000 0.138866
3.566000 0.138554
3.567000 0.138287
3.568000 0.138084
3.569000 0.137975
3.570000 0.137994
3.571000 0.138170
3.572000 0.138518
3.573000 0.138815
3.574000 0.138935
3.575000 0.138876
3.576000 0.138648
3.577000 0.138277
3.578000 0.137812
3.579000 0.137324
3.580000 0.137069
3.581000 0.137094
3.582000 0.137355
3.583000 0.137549
3.584000 0.137700
3.585000 0.137817
3.586000 0.137882
3.587000 0.137872
3.588000 0.137776
3.589000 0.137595
3.590000 0.137340
3.591000 0.137045
3.592000 0.136773
3.593000 0.136605
3.594000 0.136615
3.595000 0.136845
3.596000 0.137238
3.597000 0.137462
3.598000 0.137481
3.599000 0.137258
3.600000 0.136768
3.601000 0.136011
3.602000 0.135220
3.603000 0.134463
3.604000 0.133774
3.605000 0.133204
3.606000 0.132798
3.607000 0.132592
3.608000 0.132621
3.609000 0.132645
3.610000 0.132183
3.611000 0.131602
3.612000 0.130955
3.613000 0.130272
3.614000 0.129583
3.615000 0.128938
3.616000 0.128417
3.617000 0.128117
3.618000 0.128129
3.619000 0.128517
3.620000 0.128672
3.621000 0.128591
3.622000 0.128303
3.623000 0.127838
3.624000 0.127229
3.625000 0.126522
3.626000 0.125770
3.627000 0.125021
3.628000 0.124296
3.629000 0.123573
3.630000 0.122822
3.631000 0.122036
3.632000 0.121250
3.633000 0.120538
3.634000 0.119978
3.635000 0.119636
3.636000 0.119552
3.637000 0.119375
3.638000 0.118980
3.639000 0.118420
3.640000 0.117722
3.641000 0.116889
3.642000 0.115907
3.643000 0.114785
3.644000 0.113653
3.645000 0.112540
3.646000 0.111503
3.647000 0.110670
3.648000 0.110075
3.649000 0.109723
3.650000 0.109591
3.651000 0.109643
3.652000 0.109843
3.653000 0.110139
3.654000 0.109924
3.655000 0.109605
3.656000 0.109302
3.657000 0.108999
3.658000 0.108683
3.659000 0.108335
3.660000 0.107936
3.661000 0.107485
3.662000 0.107027
3.663000 0.106648
3.664000 0.106411
3.665000 0.106523
3.666000 0.106610
3.667000 0.106770
3.668000 0.107055
3.669000 0.107476
3.670000 0.108041
3.671000 0.108750
3.672000 0.109191
3.673000 0.109085
3.674000 0.108420
3.675000 0.107762
3.676000 0.107256
3.677000 0.106894
3.678000 0.106676
3.679000 0.106628
3.680000 0.106813
3.681000 0.107300
3.682000 0.108013
3.683000 0.108634
3.684000 0.109094
3.685000 0.109279
3.686000 0.109091
3.687000 0.108468
3.688000 0.107411
3.689000 0.106065
3.690000 0.104979
3.691000 0.104135
3.692000 0.103489
3.693000 0.103024
3.694000 0.102783
3.695000 0.102851
3.696000 0.103302
3.697000 0.103944
3.698000 0.104311
3.699000 0.104402
3.700000 0.104189
3.701000 0.103634
3.702000 0.102710
3.703000 0.101536
3.704000 0.100723
3.705000 0.100241
3.706000 0.100010
3.707000 0.099934
3.708000 0.099948
3.709000 0.100038
3.710000 0.100207
3.711000 0.100423
3.712000 0.100607
3.713000 0.100663
3.714000 0.100511
3.715000 0.100120
3.716000 0.099562
3.717000 0.098977
3.718000 0.098424
3.719000 0.097967
3.720000 0.097657
3.721000 0.097556
3.722000 0.097721
3.723000 0.097628
3.724000 0.097244
3.725000 0.096668
3.726000 0.096007
3.727000 0.095383
3.728000 0.094903
3.729000 0.094653
3.730000 0.094689
3.731000 0.095004
3.732000 0.095511
3.733000 0.095978
3.734000 0.096115
3.735000 0.095997
3.736000 0.095805
3.737000 0.095720
3.738000 0.095674
3.739000 0.095769
3.740000 0.096017
3.741000 0.096492
3.742000 0.097223
3.743000 0.098220
3.744000 0.099389
3.745000 0.100492
3.746000 0.101449
3.747000 0.102187
3.748000 0.102638
3.749000 0.102746
3.750000 0.102504
3.751000 0.102000
3.752000 0.101573
3.753000 0.101386
3.754000 0.101311
3.755000 0.101194
3.756000 0.100901
3.757000 0.100724
3.758000 0.100728
3.759000 0.100918
3.760000 0.101278
3.761000 0.101756
3.762000 0.102279
3.763000 0.102786
3.764000 0.103269
3.765000 0.103755
3.766000 0.104257
3.767000 0.104755
3.768000 0.105216
3.769000 0.105502
3.770000 0.105578
3.771000 0.105496
3.772000 0.105411
3.773000 0.105366
3.774000 0.105331
3.775000 0.105322
3.776000 0.105367
3.777000 0.105422
3.778000 0.105496
3.779000 0.105601
3.780000 0.105742
3.781000 0.105914
3.782000 0.106116
3.783000 0.106335
3.784000 0.106545
3.785000 0.106718
3.786000 0.106841
3.787000 0.106918
3.788000 0.106963
3.789000 0.107004
3.790000 0.107061
3.791000 0.107143
3.792000 0.107249
3.793000 0.107379
3.794000 0.107528
3.795000 0.107690
3.796000 0.107860
3.797000 0.108035
3.798000 0.108214
3.799000 0.108397
3.800000 0.108582
3.801000 0.108769
3.802000 0.108958
3.803000 0.109147
3.804000 0.109334
3.805000 0.109516
3.806000 0.109694
3.807000 0.109854
3.808000 0.109950
3.809000 0.109907
3.810000 0.109981
3.811000 0.110212
3.812000 0.110525
3.813000 0.110841
3.814000 0.111112
3.815000 0.111320
3.816000 0.111463
3.817000 0.111542
3.818000 0.111562
3.819000 0.111531
3.820000 0.111454
3.821000 0.111338
3.822000 0.111219
3.823000 0.111123
3.824000 0.111057
3.825000 0.111017
3.826000 0.110996
3.827000 0.110991
3.828000 0.111001
3.829000 0.111026
3.830000 0.111063
3.831000 0.111105
3.832000 0.111148
3.833000 0.111188
3.834000 0.111220
3.835000 0.111246
3.836000 0.111268
3.837000 0.111286
3.838000 0.111298
3.839000 0.111299
3.840000 0.111284
3.841000 0.111252
3.842000 0.111210
3.843000 0.111168
3.844000 0.111139
3.845000 0.111142
3.846000 0.111170
3.847000 0.111173
3.848000 0.111166
3.849000 0.111164
3.850000 0.111177
3.851000 0.111212
3.852000 0.111274
3.853000 0.111363
3.854000 0.111451
3.855000 0.111517
3.856000 0.111560
3.857000 0.111584
3.858000 0.111589
3.859000 0.111576
3.860000 0.111538
3.861000 0.111473
3.862000 0.111396
3.863000 0.111346
3.864000 0.111349
3.865000 0.111407
3.866000 0.111413
3.867000 0.111345
3.868000 0.111188
3.869000 0.110949
3.870000 0.110666
3.871000 0.110378
3.872000 0.110169
3.873000 0.110099
3.874000 0.110147
3.875000 0.110269
3.876000 0.110407
3.877000 0.110486
3.878000 0.110514
3.879000 0.110497
3.880000 0.110450
3.881000 0.110391
3.882000 0.110347
3.883000 0.110321
3.884000 0.110316
3.885000 0.110336
3.886000 0.110371
3.887000 0.110394
3.888000 0.110369
3.889000 0.110446
3.890000 0.110621
3.891000 0.110854
3.892000 0.111098
3.893000 0.111314
3.894000 0.111472
3.895000 0.111570
3.896000 0.111609
3.897000 0.111614
3.898000 0.111667
3.899000 0.111761
3.900000 0.111881
3.901000 0.111990
3.902000 0.112042
3.903000 0.112053
3.904000 0.112130
3.905000 0.112242
3.906000 0.112357
3.907000 0.112450
3.908000 0.112513
3.909000 0.112549
3.910000 0.112562
3.911000 0.112563
3.912000 0.112558
3.913000 0.112552
3.914000 0.112547
3.915000 0.112548
3.916000 0.112552
3.917000 0.112557
3.918000 0.112560
3.919000 0.112562
3.920000 0.112562
3.921000 0.112560
3.922000 0.112556
3.923000 0.112549
3.924000 0.112538
3.925000 0.112525
3.926000 0.112507
3.927000 0.112486
3.928000 0.112461
3.929000 0.112431
3.930000 0.112398
3.931000 0.112360
3.932000 0.112317
3.933000 0.112267
3.934000 0.112210
3.935000 0.112145
3.936000 0.112071
3.937000 0.111986
3.938000 0.111890
3.939000 0.111782
3.940000 0.111662
3.941000 0.111526
3.942000 0.111373
3.943000 0.111203
3.944000 0.111023
3.945000 0.110834
3.946000 0.110640
3.947000 0.110448
3.948000 0.110271
3.949000 0.110120
3.950000 0.110006
3.951000 0.109929
3.952000 0.109894
3.953000 0.109914
3.954000 0.109937
3.955000 0.109910
3.956000 0.109848
3.957000 0.109775
3.958000 0.109720
3.959000 0.109709
3.960000 0.109758
3.961000 0.109820
3.962000 0.109832
3.963000 0.109803
3.964000 0.109740
3.965000 0.109647
3.966000 0.109526
3.967000 0.109377
3.968000 0.109205
3.969000 0.109015
3.970000 0.108815
3.971000 0.108615
3.972000 0.108421
3.973000 0.108235
3.974000 0.108057
3.975000 0.107895
3.976000 0.107773
3.977000 0.107729
3.978000 0.107799
3.979000 0.108008
3.980000 0.108175
3.981000 0.108275
3.982000 0.108322
3.983000 0.108308
3.984000 0.108196
3.985000 0.107930
3.986000 0.107478
3.987000 0.107045
3.988000 0.106733
3.989000 0.106544
3.990000 0.106462
3.991000 0.106438
3.992000 0.106407
3.993000 0.106304
3.994000 0.106082
3.995000 0.105726
3.996000 0.105364
3.997000 0.105082
3.998000 0.104921
3.999000 0.104912
4.000000 0.105063
4.001000 0.105349
4.002000 0.105510
4.003000 0.105472
4.004000 0.105236
4.005000 0.104866
4.006000 0.104541
4.007000 0.104283
4.008000 0.104135
4.009000 0.104150
4.010000 0.104324
4.011000 0.104399
4.012000 0.104436
4.013000 0.104490
4.014000 0.104600
4.015000 0.104771
4.016000 0.104973
4.017000 0.105155
4.018000 0.105263
4.019000 0.105252
4.020000 0.105091
4.021000 0.104774
4.022000 0.104314
4.023000 0.103738
4.024000 0.103080
4.025000 0.102440
4.026000 0.101850
4.027000 0.101302
4.028000 0.100794
4.029000 0.100340
4.030000 0.099958
4.031000 0.099643
4.032000 0.099370
4.033000 0.099121
4.034000 0.098895
4.035000 0.098727
4.036000 0.098668
4.037000 0.098750
4.038000 0.098721
4.039000 0.098618
4.040000 0.098492
4.041000 0.098409
4.042000 0.098426
4.043000 0.098570
4.044000 0.098759
4.045000 0.099025
4.046000 0.099352
4.047000 0.099597
4.048000 0.099682
4.049000 0.099553
4.050000 0.099191
4.051000 0.098613
4.052000 0.098281
4.053000 0.098351
4.054000 0.098824
4.055000 0.099126
4.056000 0.099093
4.057000 0.098743
4.058000 0.098140
4.059000 0.097382
4.060000 0.096645
4.061000 0.096146
4.062000 0.095897
4.063000 0.095887
4.064000 0.096110
4.065000 0.096266
4.066000 0.096169
4.067000 0.095767
4.068000 0.095076
4.069000 0.094247
4.070000 0.093506
4.071000 0.092894
4.072000 0.092466
4.073000 0.092297
4.074000 0.092445
4.075000 0.092419
4.076000 0.092156
4.077000 0.091743
4.078000 0.091256
4.079000 0.090748
4.080000 0.090221
4.081000 0.089629
4.082000 0.088914
4.083000 0.088059
4.084000 0.087173
4.085000 0.086429
4.086000 0.085962
4.087000 0.085885
4.088000 0.086262
4.089000 0.086997
4.090000 0.087564
4.091000 0.087969
4.092000 0.088214
4.093000 0.088266
4.094000 0.088052
4.095000 0.087490
4.096000 0.087045
4.097000 0.086782
4.098000 0.086622
4.099000 0.086515
4.100000 0.086445
4.101000 0.086411
4.102000 0.086413
4.103000 0.086388
4.104000 0.086385
4.105000 0.086473
4.106000 0.086716
4.107000 0.087165
4.108000 0.087852
4.109000 0.088765
4.110000 0.089872
4.111000 0.091141
4.112000 0.092555
4.113000 0.094093
4.114000 0.095705
4.115000 0.097303
4.116000 0.098729
4.117000 0.099786
4.118000 0.100434
4.119000 0.100724
4.120000 0.100786
4.121000 0.100760
4.122000 0.100771
4.123000 0.100894
4.124000 0.101128
4.125000 0.101406
4.126000 0.101620
4.127000 0.101642
4.128000 0.101363
4.129000 0.100863
4.130000 0.100499
4.131000 0.100247
4.132000 0.100094
4.133000 0.100036
4.134000 0.100050
4.135000 0.100067
4.136000 0.100142
4.137000 0.100398
4.138000 0.100894
4.139000 0.101357
4.140000 0.101590
4.141000 0.101476
4.142000 0.100949
4.143000 0.099977
4.144000 0.098936
4.145000 0.098030
4.146000 0.097241
4.147000 0.096555
4.148000 0.095960
4.149000 0.095461
4.150000 0.095078
4.151000 0.095110
4.152000 0.095318
4.153000 0.095504
4.154000 0.095720
4.155000 0.096036
4.156000 0.096521
4.157000 0.096882
4.158000 0.097079
4.159000 0.097100
4.160000 0.096914
4.161000 0.096489
4.162000 0.095824
4.163000 0.094959
4.164000 0.094065
4.165000 0.093326
4.166000 0.092725
4.167000 0.092300
4.168000 0.092133
4.169000 0.092301
4.170000 0.092832
4.171000 0.093676
4.172000 0.094635
4.173000 0.095596
4.174000 0.096517
4.175000 0.097298
4.176000 0.097805
4.177000 0.097985
4.178000 0.097876
4.179000 0.097968
4.180000 0.098176
4.181000 0.098411
4.182000 0.098586
4.183000 0.098620
4.184000 0.098453
4.185000 0.098271
4.186000 0.098322
4.187000 0.098507
4.188000 0.098713
4.189000 0.098837
4.190000 0.098833
4.191000 0.098715
4.192000 0.098516
4.193000 0.098295
4.194000 0.098055
4.195000 0.097827
4.196000 0.097612
4.197000 0.097388
4.198000 0.097125
4.199000 0.096988
4.200000 0.097020
4.201000 0.097206
4.202000 0.097482
4.203000 0.097757
4.204000 0.097939
4.205000 0.097933
4.206000 0.097719
4.207000 0.097809
4.208000 0.098212
4.209000 0.098922
4.210000 0.099591
4.211000 0.100094
4.212000 0.100429
4.213000 0.100646
4.214000 0.100829
4.215000 0.101088
4.216000 0.101515
4.217000 0.102130
4.218000 0.102879
4.219000 0.103666
4.220000 0.104397
4.221000 0.104982
4.222000 0.105345
4.223000 0.105468
4.224000 0.105466
4.225000 0.105553
4.226000 0.105639
4.227000 0.105668
4.228000 0.105641
4.229000 0.105608
4.230000 0.105626
4.231000 0.105734
4.232000 0.105946
4.233000 0.106267
4.234000 0.106694
4.235000 0.107222
4.236000 0.107845
4.237000 0.108556
4.238000 0.109350
4.239000 0.110211
4.240000 0.111102
4.241000 0.111962
4.242000 0.112714
4.243000 0.113272
4.244000 0.113560
4.245000 0.113550
4.246000 0.113750
4.247000 0.114129
4.248000 0.114597
4.249000 0.115076
4.250000 0.115501
4.251000 0.115823
4.252000 0.116009
4.253000 0.116055
4.254000 0.115976
4.255000 0.115965
4.256000 0.116056
4.257000 0.116232
4.258000 0.116478
4.259000 0.116782
4.260000 0.117135
4.261000 0.117528
4.262000 0.117959
4.263000 0.118428
4.264000 0.118920
4.265000 0.119396
4.266000 0.119825
4.267000 0.120181
4.268000 0.120396
4.269000 0.120393
4.270000 0.120543
4.271000 0.120884
4.272000 0.121278
4.273000 0.121599
4.274000 0.121808
4.275000 0.121920
4.276000 0.121963
4.277000 0.121958
4.278000 0.121923
4.279000 0.121898
4.280000 0.121951
4.281000 0.122061
4.282000 0.122184
4.283000 0.122285
4.284000 0.122325
4.285000 0.122292
4.286000 0.122231
4.287000 0.122203
4.288000 0.122221
4.289000 0.122128
4.290000 0.121935
4.291000 0.121712
4.292000 0.121506
4.293000 0.121349
4.294000 0.121255
4.295000 0.121225
4.296000 0.121259
4.297000 0.121331
4.298000 0.121358
4.299000 0.121347
4.300000 0.121310
4.301000 0.121291
4.302000 0.121337
4.303000 0.121435
4.304000 0.121479
4.305000 0.121496
4.306000 0.121518
4.307000 0.121564
4.308000 0.121639
4.309000 0.121742
4.310000 0.121865
4.311000 0.121997
4.312000 0.122132
4.313000 0.122266
4.314000 0.122393
4.315000 0.122509
4.316000 0.122618
4.317000 0.122719
4.318000 0.122816
4.319000 0.122907
4.320000 0.122994
4.321000 0.123076
4.322000 0.123151
4.323000 0.123216
4.324000 0.123263
4.325000 0.123281
4.326000 0.123266
4.327000 0.123281
4.328000 0.123317
4.329000 0.123366
4.330000 0.123420
4.331000 0.123473
4.332000 0.123523
4.333000 0.123583
4.334000 0.123669
4.335000 0.123791
4.336000 0.123945
4.337000 0.124116
4.338000 0.124294
4.339000 0.124472
4.340000 0.124647
4.341000 0.124817
4.342000 0.124982
4.343000 0.125144
4.344000 0.125293
4.345000 0.125431
4.346000 0.125561
4.347000 0.125682
4.348000 0.125797
4.349000 0.125906
4.350000 0.126009
4.351000 0.126105
4.352000 0.126195
4.353000 0.126277
4.354000 0.126350
4.355000 0.126409
4.356000 0.126449
4.357000 0.126466
4.358000 0.126461
4.359000 0.126435
4.360000 0.126385
4.361000 0.126314
4.362000 0.126223
4.363000 0.126124
4.364000 0.126016
4.365000 0.125904
4.366000 0.125806
4.367000 0.125718
4.368000 0.125628
4.369000 0.125517
4.370000 0.125373
4.371000 0.125190
4.372000 0.124976
4.373000 0.124768
4.374000 0.124565
4.375000 0.124369
4.376000 0.124179
4.377000 0.123987
4.378000 0.123783
4.379000 0.123553
4.380000 0.123304
4.381000 0.123037
4.382000 0.122761
4.383000 0.122498
4.384000 0.122285
4.385000 0.122165
4.386000 0.122175
4.387000 0.122128
4.388000 0.121957
4.389000 0.121697
4.390000 0.121396
4.391000 0.121109
4.392000 0.120876
4.393000 0.120722
4.394000 0.120654
4.395000 0.120673
4.396000 0.120658
4.397000 0.120555
4.398000 0.120369
4.399000 0.120114
4.400000 0.119817
4.401000 0.119513
4.402000 0.119246
4.403000 0.119064
4.404000 0.118989
4.405000 0.118987
4.406000 0.118916
4.407000 0.118808
4.408000 0.118676
4.409000 0.118523
4.410000 0.118332
4.411000 0.118075
4.412000 0.117729
4.413000 0.117296
4.414000 0.116793
4.415000 0.116251
4.416000 0.115706
4.417000 0.115197
4.418000 0.114755
4.419000 0.114399
4.420000 0.114135
4.421000 0.113961
4.422000 0.113874
4.423000 0.113864
4.424000 0.113924
4.425000 0.113972
4.426000 0.113977
4.427000 0.113945
4.428000 0.113884
4.429000 0.113806
4.430000 0.113725
4.431000 0.113655
4.432000 0.113611
4.433000 0.113604
4.434000 0.113634
4.435000 0.113694
4.436000 0.113769
4.437000 0.113845
4.438000 0.113909
4.439000 0.113961
4.440000 0.114010
4.441000 0.114066
4.442000 0.114128
4.443000 0.114180
4.444000 0.114202
4.445000 0.114167
4.446000 0.114061
4.447000 0.113898
4.448000 0.113732
4.449000 0.113649
4.450000 0.113736
4.451000 0.114045
4.452000 0.114166
4.453000 0.113992
4.454000 0.113568
4.455000 0.113052
4.456000 0.112740
4.457000 0.112669
4.458000 0.112818
4.459000 0.113131
4.460000 0.113481
4.461000 0.113700
4.462000 0.113797
4.463000 0.113783
4.464000 0.113667
4.465000 0.113478
4.466000 0.113265
4.467000 0.113084
4.468000 0.113036
4.469000 0.113061
4.470000 0.113017
4.471000 0.112946
4.472000 0.112880
4.473000 0.112828
4.474000 0.112790
4.475000 0.112771
4.476000 0.112780
4.477000 0.112826
4.478000 0.112920
4.479000 0.113069
4.480000 0.113272
4.481000 0.113520
4.482000 0.113793
4.483000 0.114072
4.484000 0.114271
4.485000 0.114256
4.486000 0.113998
4.487000 0.113740
4.488000 0.113470
4.489000 0.113177
4.490000 0.112862
4.491000 0.112540
4.492000 0.112252
4.493000 0.112056
4.494000 0.112028
4.495000 0.112231
4.496000 0.112181
4.497000 0.111818
4.498000 0.111252
4.499000 0.110591
4.500000 0.109973
4.501000 0.109514
4.502000 0.109308
4.503000 0.109375
4.504000 0.109129
4.505000 0.108574
4.506000 0.107731
4.507000 0.106628
4.508000 0.105299
4.509000 0.103790
4.510000 0.102160
4.511000 0.100473
4.512000 0.098788
4.513000 0.097145
4.514000 0.095571
4.515000 0.094082
4.516000 0.092694
4.517000 0.091595
4.518000 0.090984
4.519000 0.090809
4.520000 0.090920
4.521000 0.091140
4.522000 0.091306
4.523000 0.091313
4.524000 0.091133
4.525000 0.090805
4.526000 0.090407
4.527000 0.090056
4.528000 0.089941
4.529000 0.089949
4.530000 0.089703
4.531000 0.089286
4.532000 0.088916
4.533000 0.088689
4.534000 0.088681
4.535000 0.088938
4.536000 0.089273
4.537000 0.089420
4.538000 0.089414
4.539000 0.089315
4.540000 0.089191
4.541000 0.089106
4.542000 0.089127
4.543000 0.089313
4.544000 0.089326
4.545000 0.089026
4.546000 0.088577
4.547000 0.088201
4.548000 0.087966
4.549000 0.087923
4.550000 0.088084
4.551000 0.088113
4.552000 0.087951
4.553000 0.087639
4.554000 0.087227
4.555000 0.086764
4.556000 0.086286
4.557000 0.085795
4.558000 0.085265
4.559000 0.084673
4.560000 0.084170
4.561000 0.083836
4.562000 0.083681
4.563000 0.083647
4.564000 0.083645
4.565000 0.083652
4.566000 0.083641
4.567000 0.083509
4.568000 0.083245
4.569000 0.082996
4.570000 0.082687
4.571000 0.082260
4.572000 0.081702
4.573000 0.081042
4.574000 0.080349
4.575000 0.079722
4.576000 0.079269
4.577000 0.079076
4.578000 0.079109
4.579000 0.078853
4.580000 0.078472
4.581000 0.078147
4.582000 0.078009
4.583000 0.078156
4.584000 0.078643
4.585000 0.079244
4.586000 0.079632
4.587000 0.079812
4.588000 0.079786
4.589000 0.079555
4.590000 0.079659
4.591000 0.080108
4.592000 0.080777
4.593000 0.081517
4.594000 0.082242
4.595000 0.082858
4.596000 0.083351
4.597000 0.083760
4.598000 0.084142
4.599000 0.084350
4.600000 0.084343
4.601000 0.084127
4.602000 0.083759
4.603000 0.083329
4.604000 0.082940
4.605000 0.082725
4.606000 0.082760
4.607000 0.082585
4.608000 0.082245
4.609000 0.081789
4.610000 0.081244
4.611000 0.080621
4.612000 0.079935
4.613000 0.079467
4.614000 0.079275
4.615000 0.079253
4.616000 0.079273
4.617000 0.079239
4.618000 0.079112
4.619000 0.078883
4.620000 0.078547
4.621000 0.078120
4.622000 0.077826
4.623000 0.077920
4.624000 0.078196
4.625000 0.078344
4.626000 0.078359
4.627000 0.078342
4.628000 0.078578
4.629000 0.078943
4.630000 0.079286
4.631000 0.079482
4.632000 0.079465
4.633000 0.079234
4.634000 0.078837
4.635000 0.078351
4.636000 0.077852
4.637000 0.077401
4.638000 0.077029
4.639000 0.076736
4.640000 0.076512
4.641000 0.076364
4.642000 0.076334
4.643000 0.076505
4.644000 0.076981
4.645000 0.077813
4.646000 0.078481
4.647000 0.078953
4.648000 0.079233
4.649000 0.079310
4.650000 0.079158
4.651000 0.078783
4.652000 0.078738
4.653000 0.078995
4.654000 0.079446
4.655000 0.079809
4.656000 0.079958
4.657000 0.079827
4.658000 0.079608
4.659000 0.079546
4.660000 0.079573
4.661000 0.079603
4.662000 0.079543
4.663000 0.079298
4.664000 0.078799
4.665000 0.078467
4.666000 0.078401
4.667000 0.078542
4.668000 0.078864
4.669000 0.079364
4.670000 0.079637
4.671000 0.079674
4.672000 0.079594
4.673000 0.079507
4.674000 0.079466
4.675000 0.079469
4.676000 0.079486
4.677000 0.079480
4.678000 0.079467
4.679000 0.079631
4.680000 0.079920
4.681000 0.080352
4.682000 0.080938
4.683000 0.081660
4.684000 0.082473
4.685000 0.083299
4.686000 0.084012
4.687000 0.084494
4.688000 0.084707
4.689000 0.084735
4.690000 0.085003
4.691000 0.085399
4.692000 0.085827
4.693000 0.086199
4.694000 0.086424
4.695000 0.086428
4.696000 0.086534
4.697000 0.086905
4.698000 0.087495
4.699000 0.088233
4.700000 0.089041
4.701000 0.089842
4.702000 0.090552
4.703000 0.091083
4.704000 0.091345
4.705000 0.091290
4.706000 0.091360
4.707000 0.091628
4.708000 0.091996
4.709000 0.092383
4.710000 0.092750
4.711000 0.093106
4.712000 0.093472
4.713000 0.093848
4.714000 0.094202
4.715000 0.094479
4.716000 0.094620
4.717000 0.094594
4.718000 0.094577
4.719000 0.094697
4.720000 0.094916
4.721000 0.095205
4.722000 0.095549
4.723000 0.095948
4.724000 0.096402
4.725000 0.096903
4.726000 0.097427
4.727000 0.097896
4.728000 0.098311
4.729000 0.098686
4.730000 0.099034
4.731000 0.099365
4.732000 0.099679
4.733000 0.099967
4.734000 0.100224
4.735000 0.100456
4.736000 0.100673
4.737000 0.100870
4.738000 0.101016
4.739000 0.101073
4.740000 0.101025
4.741000 0.100883
4.742000 0.100733
4.743000 0.100595
4.744000 0.100449
4.745000 0.100356
4.746000 0.100317
4.747000 0.100330
4.748000 0.100395
4.749000 0.100508
4.750000 0.100658
4.751000 0.100800
4.752000 0.100880
4.753000 0.100858
4.754000 0.100747
4.755000 0.100754
4.756000 0.100842
4.757000 0.100964
4.758000 0.101082
4.759000 0.101168
4.760000 0.101213
4.761000 0.101217
4.762000 0.101245
4.763000 0.101315
4.764000 0.101421
4.765000 0.101546
4.766000 0.101665
4.767000 0.101771
4.768000 0.101872
4.769000 0.101981
4.770000 0.102112
4.771000 0.102267
4.772000 0.102441
4.773000 0.102602
4.774000 0.102758
4.775000 0.102919
4.776000 0.103093
4.777000 0.103270
4.778000 0.103410
4.779000 0.103473
4.780000 0.103494
4.781000 0.103575
4.782000 0.103683
4.783000 0.103785
4.784000 0.103860
4.785000 0.103900
4.786000 0.103905
4.787000 0.103880
4.788000 0.103829
4.789000 0.103789
4.790000 0.103762
4.791000 0.103744
4.792000 0.103736
4.793000 0.103737
4.794000 0.103745
4.795000 0.103762
4.796000 0.103788
4.797000 0.103822
4.798000 0.103862
4.799000 0.103907
4.800000 0.103957
4.801000 0.104011
4.802000 0.104070
4.803000 0.104126
4.804000 0.104177
4.805000 0.104223
4.806000 0.104266
4.807000 0.104308
4.808000 0.104348
4.809000 0.104387
4.810000 0.104428
4.811000 0.104469
4.812000 0.104510
4.813000 0.104550
4.814000 0.104589
4.815000 0.104628
4.816000 0.104668
4.817000 0.104709
4.818000 0.104748
4.819000 0.104783
4.820000 0.104811
4.821000 0.104832
4.822000 0.104844
4.823000 0.104850
4.824000 0.104850
4.825000 0.104844
4.826000 0.104828
4.827000 0.104794
4.828000 0.104740
4.829000 0.104665
4.830000 0.104569
4.831000 0.104454
4.832000 0.104330
4.833000 0.104209
4.834000 0.104088
4.835000 0.103966
4.836000 0.103846
4.837000 0.103738
4.838000 0.103653
4.839000 0.103588
4.840000 0.103535
4.841000 0.103481
4.842000 0.103412
4.843000 0.103317
4.844000 0.103196
4.845000 0.103064
4.846000 0.102935
4.847000 0.102809
4.848000 0.102670
4.849000 0.102498
4.850000 0.102284
4.851000 0.102043
4.852000 0.101815
4.853000 0.101648
4.854000 0.101591
4.855000 0.101585
4.856000 0.101429
4.857000 0.101154
4.858000 0.100811
4.859000 0.100448
4.860000 0.100103
4.861000 0.099805
4.862000 0.099565
4.863000 0.099385
4.864000 0.099260
4.865000 0.099186
4.866000 0.099158
4.867000 0.099170
4.868000 0.099155
4.869000 0.099102
4.870000 0.099018
4.871000 0.098909
4.872000 0.098780
4.873000 0.098633
4.874000 0.098468
4.875000 0.098280
4.876000 0.098069
4.877000 0.097846
4.878000 0.097609
4.879000 0.097354
4.880000 0.097075
4.881000 0.096776
4.882000 0.096467
4.883000 0.096174
4.884000 0.095939
4.885000 0.095822
4.886000 0.095805
4.887000 0.095617
4.888000 0.095274
4.889000 0.094814
4.890000 0.094292
4.891000 0.093765
4.892000 0.093277
4.893000 0.092857
4.894000 0.092522
4.895000 0.092275
4.896000 0.092110
4.897000 0.092013
4.898000 0.091972
4.899000 0.091971
4.900000 0.091962
4.901000 0.091923
4.902000 0.091853
4.903000 0.091757
4.904000 0.091633
4.905000 0.091484
4.906000 0.091318
4.907000 0.091149
4.908000 0.090983
4.909000 0.090822
4.910000 0.090665
4.911000 0.090507
4.912000 0.090342
4.913000 0.090171
4.914000 0.090008
4.915000 0.089894
4.916000 0.089885
4.917000 0.089866
4.918000 0.089690
4.919000 0.089384
4.920000 0.089006
4.921000 0.088626
4.922000 0.088300
4.923000 0.088058
4.924000 0.087906
4.925000 0.087837
4.926000 0.087841
4.927000 0.087894
4.928000 0.087898
4.929000 0.087887
4.930000 0.087905
4.931000 0.087943
4.932000 0.087882
4.933000 0.087720
4.934000 0.087470
4.935000 0.087157
4.936000 0.086799
4.937000 0.086404
4.938000 0.085983
4.939000 0.085553
4.940000 0.085142
4.941000 0.084779
4.942000 0.084490
4.943000 0.084297
4.944000 0.084211
4.945000 0.084237
4.946000 0.084311
4.947000 0.084304
4.948000 0.084244
4.949000 0.084162
4.950000 0.084086
4.951000 0.084035
4.952000 0.084028
4.953000 0.084071
4.954000 0.084157
4.955000 0.084262
4.956000 0.084362
4.957000 0.084442
4.958000 0.084524
4.959000 0.084647
4.960000 0.084717
4.961000 0.084720
4.962000 0.084698
4.963000 0.084721
4.964000 0.084748
4.965000 0.084659
4.966000 0.084540
4.967000 0.084499
4.968000 0.084495
4.969000 0.084320
4.970000 0.084026
4.971000 0.083707
4.972000 0.083451
4.973000 0.083309
4.974000 0.083285
4.975000 0.083350
4.976000 0.083456
4.977000 0.083555
4.978000 0.083628
4.979000 0.083682
4.980000 0.083643
4.981000 0.083498
4.982000 0.083247
4.983000 0.082889
4.984000 0.082461
4.985000 0.082031
4.986000 0.081682
4.987000 0.081485
4.988000 0.081512
4.989000 0.081811
4.990000 0.081837
4.991000 0.081536
4.992000 0.080980
4.993000 0.080254
4.994000 0.079593
4.995000 0.079080
4.996000 0.078690
4.997000 0.078344
4.998000 0.077958
4.999000 0.077796
5.000000 0.077868
5.001000 0.078158
5.002000 0.078622
5.003000 0.079188
5.004000 0.079773
5.005000 0.080282
5.006000 0.080623
5.007000 0.080743
5.008000 0.080634
5.009000 0.080362
5.010000 0.080214
5.011000 0.080238
5.012000 0.080456
5.013000 0.080563
5.014000 0.080412
5.015000 0.079972
5.016000 0.079354
5.017000 0.078788
5.018000 0.078334
5.019000 0.078042
5.020000 0.077958
5.021000 0.078100
5.022000 0.078259
5.023000 0.078155
5.024000 0.077876
5.025000 0.077671
5.026000 0.077657
5.027000 0.077727
5.028000 0.077519
5.029000 0.077240
5.030000 0.077137
5.031000 0.077306
5.032000 0.077770
5.033000 0.078460
5.034000 0.079244
5.035000 0.079969
5.036000 0.080487
5.037000 0.080691
5.038000 0.080533
5.039000 0.080038
5.040000 0.079393
5.041000 0.078828
5.042000 0.078332
5.043000 0.077877
5.044000 0.077437
5.045000 0.076999
5.046000 0.076587
5.047000 0.076253
5.048000 0.076044
5.049000 0.075986
5.050000 0.076117
5.051000 0.076447
5.052000 0.076438
5.053000 0.076113
5.054000 0.075730
5.055000 0.075564
5.056000 0.075715
5.057000 0.076238
5.058000 0.076894
5.059000 0.077362
5.060000 0.077629
5.061000 0.077710
5.062000 0.077656
5.063000 0.077572
5.064000 0.077598
5.065000 0.077426
5.066000 0.077051
5.067000 0.076587
5.068000 0.076129
5.069000 0.075738
5.070000 0.075442
5.071000 0.075241
5.072000 0.075118
5.073000 0.075044
5.074000 0.074972
5.075000 0.074850
5.076000 0.074653
5.077000 0.074744
5.078000 0.075074
5.079000 0.075336
5.080000 0.075417
5.081000 0.075213
5.082000 0.074667
5.083000 0.073830
5.084000 0.073150
5.085000 0.072706
5.086000 0.072560
5.087000 0.072737
5.088000 0.073217
5.089000 0.073848
5.090000 0.074141
5.091000 0.074146
5.092000 0.073933
5.093000 0.073576
5.094000 0.073413
5.095000 0.073684
5.096000 0.074064
5.097000 0.074374
5.098000 0.074613
5.099000 0.074787
5.100000 0.074890
5.101000 0.074910
5.102000 0.074849
5.103000 0.074747
5.104000 0.074694
5.105000 0.074806
5.106000 0.074735
5.107000 0.074512
5.108000 0.074306
5.109000 0.074217
5.110000 0.074252
5.111000 0.074332
5.112000 0.074349
5.113000 0.074213
5.114000 0.073866
5.115000 0.073614
5.116000 0.073744
5.117000 0.074199
5.118000 0.074707
5.119000 0.075050
5.120000 0.075169
5.121000 0.075013
5.122000 0.074621
5.123000 0.074417
5.124000 0.074379
5.125000 0.074496
5.126000 0.074749
5.127000 0.075101
5.128000 0.075502
5.129000 0.075909
5.130000 0.076293
5.131000 0.076650
5.132000 0.076999
5.133000 0.077368
5.134000 0.077775
5.135000 0.078225
5.136000 0.078713
5.137000 0.079232
5.138000 0.079776
5.139000 0.080328
5.140000 0.080829
5.141000 0.081184
5.142000 0.081257
5.143000 0.081434
5.144000 0.081860
5.145000 0.082386
5.146000 0.082918
5.147000 0.083374
5.148000 0.083694
5.149000 0.083829
5.150000 0.083753
5.151000 0.083510
5.152000 0.083370
5.153000 0.083351
5.154000 0.083339
5.155000 0.083390
5.156000 0.083594
5.157000 0.083961
5.158000 0.084444
5.159000 0.084977
5.160000 0.085478
5.161000 0.085862
5.162000 0.085999
5.163000 0.086028
5.164000 0.086299
5.165000 0.086803
5.166000 0.087510
5.167000 0.088380
5.168000 0.089371
5.169000 0.090451
5.170000 0.091591
5.171000 0.092746
5.172000 0.093860
5.173000 0.094861
5.174000 0.095673
5.175000 0.096247
5.176000 0.096583
5.177000 0.096753
5.178000 0.096854
5.179000 0.096911
5.180000 0.096962
5.181000 0.097200
5.182000 0.097647
5.183000 0.098268
5.184000 0.098998
5.185000 0.099765
5.186000 0.100512
5.187000 0.101201
5.188000 0.101804
5.189000 0.102263
5.190000 0.102548
5.191000 0.102649
5.192000 0.102634
5.193000 0.102767
5.194000 0.103027
5.195000 0.103389
5.196000 0.103806
5.197000 0.104202
5.198000 0.104498
5.199000 0.104648
5.200000 0.104662
5.201000 0.104602
5.202000 0.104543
5.203000 0.104531
5.204000 0.104579
5.205000 0.104674
5.206000 0.104805
5.207000 0.104963
5.208000 0.105147
5.209000 0.105351
5.210000 0.105571
5.211000 0.105803
5.212000 0.106045
5.213000 0.106294
5.214000 0.106546
5.215000 0.106797
5.216000 0.107040
5.217000 0.107272
5.218000 0.107490
5.219000 0.107693
5.220000 0.107882
5.221000 0.108056
5.222000 0.108217
5.223000 0.108362
5.224000 0.108492
5.225000 0.108609
5.226000 0.108716
5.227000 0.108822
5.228000 0.108929
5.229000 0.109040
5.230000 0.109155
5.231000 0.109271
5.232000 0.109384
5.233000 0.109481
5.234000 0.109569
5.235000 0.109648
5.236000 0.109716
5.237000 0.109758
5.238000 0.109763
5.239000 0.109731
5.240000 0.109667
5.241000 0.109584
5.242000 0.109495
5.243000 0.109411
5.244000 0.109332
5.245000 0.109244
5.246000 0.109134
5.247000 0.109003
5.248000 0.108865
5.249000 0.108736
5.250000 0.108628
5.251000 0.108546
5.252000 0.108487
5.253000 0.108448
5.254000 0.108421
5.255000 0.108401
5.256000 0.108384
5.257000 0.108370
5.258000 0.108360
5.259000 0.108351
5.260000 0.108343
5.261000 0.108333
5.262000 0.108321
5.263000 0.108308
5.264000 0.108294
5.265000 0.108282
5.266000 0.108273
5.267000 0.108269
5.268000 0.108267
5.269000 0.108267
5.270000 0.108271
5.271000 0.108281
5.272000 0.108298
5.273000 0.108326
5.274000 0.108364
5.275000 0.108411
5.276000 0.108465
5.277000 0.108511
5.278000 0.108547
5.279000 0.108580
5.280000 0.108615
5.281000 0.108656
5.282000 0.108705
5.283000 0.108763
5.284000 0.108829
5.285000 0.108886
5.286000 0.108936
5.287000 0.108980
5.288000 0.109019
5.289000 0.109051
5.290000 0.109073
5.291000 0.109082
5.292000 0.109075
5.293000 0.109054
5.294000 0.109026
5.295000 0.109006
5.296000 0.108988
5.297000 0.108973
5.298000 0.108959
5.299000 0.108946
5.300000 0.108938
5.301000 0.108934
5.302000 0.108938
5.303000 0.108946
5.304000 0.108954
5.305000 0.108960
5.306000 0.108958
5.307000 0.108949
5.308000 0.108933
5.309000 0.108913
5.310000 0.108892
5.311000 0.108870
5.312000 0.108845
5.313000 0.108814
5.314000 0.108777
5.315000 0.108730
5.316000 0.108675
5.317000 0.108613
5.318000 0.108552
5.319000 0.108489
5.320000 0.108424
5.321000 0.108359
5.322000 0.108294
5.323000 0.108232
5.324000 0.108174
5.325000 0.108120
5.326000 0.108073
5.327000 0.108035
5.328000 0.108012
5.329000 0.108004
5.330000 0.108004
5.331000 0.107980
5.332000 0.107931
5.333000 0.107951
5.334000 0.108032
5.335000 0.108145
5.336000 0.108261
5.337000 0.108357
5.338000 0.108422
5.339000 0.108454
5.340000 0.108453
5.341000 0.108421
5.342000 0.108363
5.343000 0.108283
5.344000 0.108189
5.345000 0.108103
5.346000 0.108018
5.347000 0.107930
5.348000 0.107834
5.349000 0.107726
5.350000 0.107605
5.351000 0.107474
5.352000 0.107340
5.353000 0.107205
5.354000 0.107071
5.355000 0.106944
5.356000 0.106827
5.357000 0.106717
5.358000 0.106611
5.359000 0.106505
5.360000 0.106398
5.361000 0.106299
5.362000 0.106217
5.363000 0.106155
5.364000 0.106113
5.365000 0.106085
5.366000 0.106059
5.367000 0.106025
5.368000 0.105973
5.369000 0.105896
5.370000 0.105794
5.371000 0.105663
5.372000 0.105498
5.373000 0.105304
5.374000 0.105090
5.375000 0.104876
5.376000 0.104681
5.377000 0.104523
5.378000 0.104416
5.379000 0.104366
5.380000 0.104373
5.381000 0.104365
5.382000 0.104304
5.383000 0.104188
5.384000 0.104013
5.385000 0.103779
5.386000 0.103492
5.387000 0.103173
5.388000 0.102844
5.389000 0.102537
5.390000 0.102280
5.391000 0.102102
5.392000 0.102019
5.393000 0.102039
5.394000 0.102014
5.395000 0.101927
5.396000 0.101823
5.397000 0.101761
5.398000 0.101804
5.399000 0.101675
5.400000 0.101360
5.401000 0.100886
5.402000 0.100304
5.403000 0.099688
5.404000 0.099112
5.405000 0.098634
5.406000 0.098291
5.407000 0.098097
5.408000 0.098049
5.409000 0.098119
5.410000 0.098081
5.411000 0.097962
5.412000 0.097806
5.413000 0.097663
5.414000 0.097588
5.415000 0.097620
5.416000 0.097685
5.417000 0.097624
5.418000 0.097462
5.419000 0.097239
5.420000 0.097003
5.421000 0.096800
5.422000 0.096674
5.423000 0.096655
5.424000 0.096762
5.425000 0.096849
5.426000 0.096903
5.427000 0.096992
5.428000 0.097192
5.429000 0.097364
5.430000 0.097335
5.431000 0.097059
5.432000 0.096533
5.433000 0.095797
5.434000 0.094937
5.435000 0.094227
5.436000 0.093720
5.437000 0.093442
5.438000 0.093395
5.439000 0.093557
5.440000 0.093783
5.441000 0.093887
5.442000 0.093905
5.443000 0.093849
5.444000 0.093706
5.445000 0.093453
5.446000 0.093084
5.447000 0.092616
5.448000 0.092097
5.449000 0.091594
5.450000 0.091162
5.451000 0.090828
5.452000 0.090605
5.453000 0.090562
5.454000 0.090531
5.455000 0.090319
5.456000 0.089906
5.457000 0.089309
5.458000 0.088589
5.459000 0.087833
5.460000 0.087134
5.461000 0.086573
5.462000 0.086193
5.463000 0.085997
5.464000 0.085946
5.465000 0.085976
5.466000 0.086031
5.467000 0.086076
5.468000 0.086095
5.469000 0.086089
5.470000 0.086069
5.471000 0.086047
5.472000 0.086046
5.473000 0.086105
5.474000 0.086287
5.475000 0.086661
5.476000 0.087250
5.477000 0.087672
5.478000 0.087900
5.479000 0.087965
5.480000 0.087931
5.481000 0.087871
5.482000 0.087847
5.483000 0.087866
5.484000 0.087721
5.485000 0.087465
5.486000 0.087096
5.487000 0.086636
5.488000 0.086127
5.489000 0.085622
5.490000 0.085175
5.491000 0.084835
5.492000 0.084655
5.493000 0.084691
5.494000 0.084724
5.495000 0.084600
5.496000 0.084307
5.497000 0.083825
5.498000 0.083136
5.499000 0.082237
5.500000 0.081335
5.501000 0.080747
5.502000 0.080523
5.503000 0.080630
5.504000 0.080974
5.505000 0.081401
5.506000 0.081733
5.507000 0.081815
5.508000 0.081568
5.509000 0.081222
5.510000 0.080846
5.511000 0.080419
5.512000 0.079971
5.513000 0.079598
5.514000 0.079476
5.515000 0.079399
5.516000 0.079252
5.517000 0.079170
5.518000 0.079247
5.519000 0.079542
5.520000 0.080090
5.521000 0.080892
5.522000 0.081841
5.523000 0.082427
5.524000 0.082606
5.525000 0.082367
5.526000 0.081754
5.527000 0.080932
5.528000 0.080226
5.529000 0.079607
5.530000 0.079021
5.531000 0.078396
5.532000 0.077659
5.533000 0.077079
5.534000 0.076606
5.535000 0.076158
5.536000 0.075647
5.537000 0.075004
5.538000 0.074175
5.539000 0.073598
5.540000 0.073481
5.541000 0.073845
5.542000 0.074650
5.543000 0.075402
5.544000 0.075888
5.545000 0.076108
5.546000 0.076077
5.547000 0.075837
5.548000 0.075445
5.549000 0.075154
5.550000 0.075232
5.551000 0.075655
5.552000 0.076182
5.553000 0.076813
5.554000 0.077625
5.555000 0.078337
5.556000 0.078886
5.557000 0.079292
5.558000 0.079622
5.559000 0.079950
5.560000 0.080360
5.561000 0.080944
5.562000 0.081789
5.563000 0.082746
5.564000 0.083475
5.565000 0.083947
5.566000 0.084123
5.567000 0.083964
5.568000 0.083452
5.569000 0.082630
5.570000 0.081608
5.571000 0.080530
5.572000 0.079510
5.573000 0.078632
5.574000 0.077937
5.575000 0.077416
5.576000 0.077011
5.577000 0.076671
5.578000 0.076653
5.579000 0.077000
5.580000 0.077578
5.581000 0.078004
5.582000 0.078201
5.583000 0.078150
5.584000 0.077847
5.585000 0.077292
5.586000 0.076491
5.587000 0.076086
5.588000 0.076089
5.589000 0.076491
5.590000 0.077280
5.591000 0.078412
5.592000 0.079745
5.593000 0.080939
5.594000 0.081934
5.595000 0.082679
5.596000 0.083153
5.597000 0.083400
5.598000 0.083481
5.599000 0.083422
5.600000 0.083462
5.601000 0.083775
5.602000 0.084186
5.603000 0.084553
5.604000 0.084769
5.605000 0.084762
5.606000 0.084650
5.607000 0.084728
5.608000 0.084955
5.609000 0.085258
5.610000 0.085551
5.611000 0.085743
5.612000 0.085742
5.613000 0.085463
5.614000 0.085461
5.615000 0.085764
5.616000 0.086313
5.617000 0.087043
5.618000 0.087889
5.619000 0.088778
5.620000 0.089635
5.621000 0.090385
5.622000 0.090961
5.623000 0.091319
5.624000 0.091462
5.625000 0.091425
5.626000 0.091243
5.627000 0.091196
5.628000 0.091269
5.629000 0.091443
5.630000 0.091681
5.631000 0.091935
5.632000 0.092159
5.633000 0.092325
5.634000 0.092422
5.635000 0.092467
5.636000 0.092500
5.637000 0.092578
5.638000 0.092764
5.639000 0.093109
5.640000 0.093626
5.641000 0.094290
5.642000 0.095059
5.643000 0.095872
5.644000 0.096655
5.645000 0.097322
5.646000 0.097778
5.647000 0.097941
5.648000 0.098011
5.649000 0.098332
5.650000 0.098810
5.651000 0.099352
5.652000 0.099867
5.653000 0.100268
5.654000 0.100496
5.655000 0.100525
5.656000 0.100659
5.657000 0.100962
5.658000 0.101383
5.659000 0.101868
5.660000 0.102380
5.661000 0.102890
5.662000 0.103373
5.663000 0.103815
5.664000 0.104214
5.665000 0.104583
5.666000 0.104954
5.667000 0.105359
5.668000 0.105813
5.669000 0.106310
5.670000 0.106839
5.671000 0.107385
5.672000 0.107934
5.673000 0.108477
5.674000 0.109006
5.675000 0.109519
5.676000 0.110015
5.677000 0.110494
5.678000 0.110956
5.679000 0.111400
5.680000 0.111825
5.681000 0.112233
5.682000 0.112626
5.683000 0.113003
5.684000 0.113352
5.685000 0.113646
5.686000 0.113864
5.687000 0.113998
5.688000 0.114060
5.689000 0.114076
5.690000 0.114078
5.691000 0.114085
5.692000 0.114109
5.693000 0.114153
5.694000 0.114210
5.695000 0.114264
5.696000 0.114318
5.697000 0.114376
5.698000 0.114438
5.699000 0.114507
5.700000 0.114581
5.701000 0.114662
5.702000 0.114748
5.703000 0.114837
5.704000 0.114929
5.705000 0.115023
5.706000 0.115120
5.707000 0.115218
5.708000 0.115313
5.709000 0.115403
5.710000 0.115484
5.711000 0.115559
5.712000 0.115630
5.713000 0.115701
5.714000 0.115770
5.715000 0.115825
5.716000 0.115849
5.717000 0.115866
5.718000 0.115921
5.719000 0.116000
5.720000 0.116085
5.721000 0.116161
5.722000 0.116222
5.723000 0.116260
5.724000 0.116275
5.725000 0.116267
5.726000 0.116268
5.727000 0.116270
5.728000 0.116265
5.729000 0.116248
5.730000 0.116228
5.731000 0.116235
5.732000 0.116271
5.733000 0.116234
5.734000 0.116130
5.735000 0.115985
5.736000 0.115829
5.737000 0.115683
5.738000 0.115560
5.739000 0.115464
5.740000 0.115394
5.741000 0.115348
5.742000 0.115322
5.743000 0.115314
5.744000 0.115316
5.745000 0.115310
5.746000 0.115304
5.747000 0.115306
5.748000 0.115322
5.749000 0.115354
5.750000 0.115399
5.751000 0.115451
5.752000 0.115503
5.753000 0.115557
5.754000 0.115615
5.755000 0.115676
5.756000 0.115737
5.757000 0.115795
5.758000 0.115850
5.759000 0.115899
5.760000 0.115943
5.761000 0.115980
5.762000 0.116008
5.763000 0.116027
5.764000 0.116041
5.765000 0.116053
5.766000 0.116070
5.767000 0.116093
5.768000 0.116123
5.769000 0.116161
5.770000 0.116194
5.771000 0.116220
5.772000 0.116237
5.773000 0.116245
5.774000 0.116243
5.775000 0.116230
5.776000 0.116213
5.777000 0.116205
5.778000 0.116204
5.779000 0.116211
5.780000 0.116223
5.781000 0.116239
5.782000 0.116259
5.783000 0.116283
5.784000 0.116317
5.785000 0.116360
5.786000 0.116414
5.787000 0.116478
5.788000 0.116549
5.789000 0.116625
5.790000 0.116705
5.791000 0.116788
5.792000 0.116874
5.793000 0.116958
5.794000 0.117035
5.795000 0.117103
5.796000 0.117154
5.797000 0.117189
5.798000 0.117208
5.799000 0.117216
5.800000 0.117216
5.801000 0.117210
5.802000 0.117197
5.803000 0.117180
5.804000 0.117156
5.805000 0.117127
5.806000 0.117092
5.807000 0.117050
5.808000 0.117001
5.809000 0.116945
5.810000 0.116883
5.811000 0.116817
5.812000 0.116747
5.813000 0.116675
5.814000 0.116601
5.815000 0.116526
5.816000 0.116450
5.817000 0.116373
5.818000 0.116295
5.819000 0.116217
5.820000 0.116139
5.821000 0.116061
5.822000 0.115979
5.823000 0.115889
5.824000 0.115787
5.825000 0.115664
5.826000 0.115513
5.827000 0.115328
5.828000 0.115106
5.829000 0.114855
5.830000 0.114595
5.831000 0.114359
5.832000 0.114184
5.833000 0.114099
5.834000 0.114102
5.835000 0.114005
5.836000 0.113833
5.837000 0.113614
5.838000 0.113368
5.839000 0.113106
5.840000 0.112835
5.841000 0.112563
5.842000 0.112301
5.843000 0.112061
5.844000 0.111857
5.845000 0.111694
5.846000 0.111571
5.847000 0.111480
5.848000 0.111412
5.849000 0.111361
5.850000 0.111329
5.851000 0.111324
5.852000 0.111349
5.853000 0.111346
5.854000 0.111322
5.855000 0.111290
5.856000 0.111265
5.857000 0.111257
5.858000 0.111269
5.859000 0.111299
5.860000 0.111343
5.861000 0.111396
5.862000 0.111459
5.863000 0.111521
5.864000 0.111562
5.865000 0.111572
5.866000 0.111544
5.867000 0.111488
5.868000 0.111419
5.869000 0.111349
5.870000 0.111278
5.871000 0.111183
5.872000 0.111028
5.873000 0.110782
5.874000 0.110426
5.875000 0.109965
5.876000 0.109432
5.877000 0.108878
5.878000 0.108355
5.879000 0.107906
5.880000 0.107562
5.881000 0.107340
5.882000 0.107245
5.883000 0.107271
5.884000 0.107262
5.885000 0.107173
5.886000 0.107034
5.887000 0.106883
5.888000 0.106754
5.889000 0.106673
5.890000 0.106647
5.891000 0.106659
5.892000 0.106681
5.893000 0.106678
5.894000 0.106624
5.895000 0.106513
5.896000 0.106358
5.897000 0.106199
5.898000 0.106097
5.899000 0.106125
5.900000 0.106156
5.901000 0.105959
5.902000 0.105566
5.903000 0.105056
5.904000 0.104518
5.905000 0.104045
5.906000 0.103719
5.907000 0.103597
5.908000 0.103686
5.909000 0.103742
5.910000 0.103736
5.911000 0.103765
5.912000 0.103892
5.913000 0.104121
5.914000 0.104366
5.915000 0.104583
5.916000 0.104654
5.917000 0.104506
5.918000 0.104098
5.919000 0.103410
5.920000 0.102461
5.921000 0.101566
5.922000 0.100839
5.923000 0.100328
5.924000 0.100053
5.925000 0.100001
5.926000 0.100136
5.927000 0.100335
5.928000 0.100327
5.929000 0.100187
5.930000 0.100003
5.931000 0.099871
5.932000 0.099913
5.933000 0.099820
5.934000 0.099599
5.935000 0.099298
5.936000 0.098993
5.937000 0.098777
5.938000 0.098744
5.939000 0.098519
5.940000 0.098012
5.941000 0.097281
5.942000 0.096402
5.943000 0.095453
5.944000 0.094578
5.945000 0.093874
5.946000 0.093418
5.947000 0.093245
5.948000 0.093347
5.949000 0.093508
5.950000 0.093487
5.951000 0.093304
5.952000 0.092970
5.953000 0.092490
5.954000 0.091859
5.955000 0.091065
5.956000 0.090141
5.957000 0.089294
5.958000 0.088521
5.959000 0.087802
5.960000 0.087107
5.961000 0.086401
5.962000 0.085661
5.963000 0.084874
5.964000 0.084056
5.965000 0.083263
5.966000 0.082582
5.967000 0.082097
5.968000 0.081861
5.969000 0.081850
5.970000 0.081959
5.971000 0.082069
5.972000 0.082097
5.973000 0.082018
5.974000 0.081861
5.975000 0.081695
5.976000 0.081596
5.977000 0.081582
5.978000 0.081368
5.979000 0.080946
5.980000 0.080366
5.981000 0.079701
5.982000 0.079024
5.983000 0.078400
5.984000 0.077899
5.985000 0.077604
5.986000 0.077666
5.987000 0.077467
5.988000 0.076997
5.989000 0.076253
5.990000 0.075244
5.991000 0.074003
5.992000 0.072696
5.993000 0.071489
5.994000 0.070484
5.995000 0.069761
5.996000 0.069355
5.997000 0.069242
5.998000 0.069359
5.999000 0.069641
6.000000 0.069788
6.001000 0.069559
6.002000 0.069212
6.003000 0.068961
6.004000 0.068840
6.005000 0.068872
6.006000 0.068908
6.007000 0.068624
6.008000 0.068292
6.009000 0.068005
6.010000 0.067820
6.011000 0.067768
6.012000 0.067867
6.013000 0.068129
6.014000 0.067949
6.015000 0.067401
6.016000 0.066776
6.017000 0.066112
6.018000 0.065439
6.019000 0.064803
6.020000 0.064265
6.021000 0.063904
6.022000 0.063801
6.023000 0.064007
6.024000 0.064513
6.025000 0.065263
6.026000 0.066174
6.027000 0.066888
6.028000 0.067339
6.029000 0.067497
6.030000 0.067423
6.031000 0.067258
6.032000 0.067151
6.033000 0.067236
6.034000 0.067614
6.035000 0.068309
6.036000 0.069268
6.037000 0.070391
6.038000 0.071561
6.039000 0.072664
6.040000 0.073620
6.041000 0.074380
6.042000 0.074925
6.043000 0.075275
6.044000 0.075509
6.045000 0.075755
6.046000 0.076169
6.047000 0.076895
6.048000 0.077753
6.049000 0.078385
6.050000 0.078865
6.051000 0.079269
6.052000 0.079652
6.053000 0.080028
6.054000 0.080367
6.055000 0.080614
6.056000 0.080482
6.057000 0.080430
6.058000 0.080409
6.059000 0.080376
6.060000 0.080275
6.061000 0.080040
6.062000 0.079609
6.063000 0.079328
6.064000 0.079365
6.065000 0.079645
6.066000 0.080051
6.067000 0.080463
6.068000 0.080778
6.069000 0.080915
6.070000 0.080839
6.071000 0.080584
6.072000 0.080244
6.073000 0.079932
6.074000 0.079753
6.075000 0.079775
6.076000 0.079991
6.077000 0.080336
6.078000 0.080722
6.079000 0.081061
6.080000 0.081278
6.081000 0.081328
6.082000 0.081189
6.083000 0.080842
6.084000 0.080534
6.085000 0.080411
6.086000 0.080401
6.087000 0.080412
6.088000 0.080335
6.089000 0.080463
6.090000 0.080875
6.091000 0.081497
6.092000 0.082234
6.093000 0.083007
6.094000 0.083782
6.095000 0.084576
6.096000 0.085428
6.097000 0.086351
6.098000 0.087308
6.099000 0.088233
6.100000 0.089079
6.101000 0.089839
6.102000 0.090533
6.103000 0.091197
6.104000 0.091852
6.105000 0.092480
6.106000 0.093029
6.107000 0.093446
6.108000 0.093687
6.109000 0.093708
6.110000 0.093712
6.111000 0.093927
6.112000 0.094282
6.113000 0.094686
6.114000 0.095050
6.115000 0.095297
6.116000 0.095378
6.117000 0.095488
6.118000 0.095789
6.119000 0.096257
6.120000 0.096860
6.121000 0.097564
6.122000 0.098322
6.123000 0.099091
6.124000 0.099831
6.125000 0.100512
6.126000 0.101084
6.127000 0.101556
6.128000 0.101956
6.129000 0.102319
6.130000 0.102677
6.131000 0.103044
6.132000 0.103419
6.133000 0.103806
6.134000 0.104228
6.135000 0.104707
6.136000 0.105212
6.137000 0.105667
6.138000 0.105974
6.139000 0.106046
6.140000 0.106226
6.141000 0.106650
6.142000 0.107228
6.143000 0.107865
6.144000 0.108471
6.145000 0.108969
6.146000 0.109313
6.147000 0.109482
6.148000 0.109468
6.149000 0.109577
6.150000 0.109841
6.151000 0.110238
6.152000 0.110717
6.153000 0.111195
6.154000 0.111594
6.155000 0.111877
6.156000 0.112050
6.157000 0.112143
6.158000 0.112200
6.159000 0.112262
6.160000 0.112361
6.161000 0.112511
6.162000 0.112710
6.163000 0.112942
6.164000 0.113173
6.165000 0.113357
6.166000 0.113454
6.167000 0.113458
6.168000 0.113432
6.169000 0.113420
6.170000 0.113381
6.171000 0.113390
6.172000 0.113444
6.173000 0.113539
6.174000 0.113672
6.175000 0.113831
6.176000 0.113995
6.177000 0.114149
6.178000 0.114300
6.179000 0.114447
6.180000 0.114561
6.181000 0.114605
6.182000 0.114563
6.183000 0.114612
6.184000 0.114721
6.185000 0.114850
6.186000 0.114958
6.187000 0.115018
6.188000 0.115011
6.189000 0.114934
6.190000 0.114839
6.191000 0.114782
6.192000 0.114755
6.193000 0.114749
6.194000 0.114761
6.195000 0.114789
6.196000 0.114834
6.197000 0.114897
6.198000 0.114973
6.199000 0.115057
6.200000 0.115144
6.201000 0.115232
6.202000 0.115317
6.203000 0.115398
6.204000 0.115471
6.205000 0.115537
6.206000 0.115594
6.207000 0.115643
6.208000 0.115684
6.209000 0.115715
6.210000 0.115738
6.211000 0.115755
6.212000 0.115765
6.213000 0.115769
6.214000 0.115768
6.215000 0.115763
6.216000 0.115756
6.217000 0.115749
6.218000 0.115747
6.219000 0.115752
6.220000 0.115764
6.221000 0.115782
6.222000 0.115802
6.223000 0.115824
6.224000 0.115845
6.225000 0.115865
6.226000 0.115884
6.227000 0.115902
6.228000 0.115921
6.229000 0.115940
6.230000 0.115957
6.231000 0.115973
6.232000 0.115989
6.233000 0.116007
6.234000 0.116028
6.235000 0.116054
6.236000 0.116084
6.237000 0.116119
6.238000 0.116163
6.239000 0.116223
6.240000 0.116300
6.241000 0.116394
6.242000 0.116504
6.243000 0.116626
6.244000 0.116763
6.245000 0.116918
6.246000 0.117086
6.247000 0.117248
6.248000 0.117367
6.249000 0.117415
6.250000 0.117399
6.251000 0.117413
6.252000 0.117419
6.253000 0.117394
6.254000 0.117385
6.255000 0.117400
6.256000 0.117429
6.257000 0.117462
6.258000 0.117488
6.259000 0.117501
6.260000 0.117498
6.261000 0.117481
6.262000 0.117450
6.263000 0.117407
6.264000 0.117354
6.265000 0.117290
6.266000 0.117215
6.267000 0.117154
6.268000 0.117103
6.269000 0.117060
6.270000 0.117019
6.271000 0.116977
6.272000 0.116931
6.273000 0.116881
6.274000 0.116830
6.275000 0.116781
6.276000 0.116735
6.277000 0.116694
6.278000 0.116656
6.279000 0.116622
6.280000 0.116590
6.281000 0.116561
6.282000 0.116531
6.283000 0.116501
6.284000 0.116467
6.285000 0.116428
6.286000 0.116385
6.287000 0.116339
6.288000 0.116294
6.289000 0.116254
6.290000 0.116220
6.291000 0.116194
6.292000 0.116176
6.293000 0.116164
6.294000 0.116155
6.295000 0.116143
6.296000 0.116123
6.297000 0.116090
6.298000 0.116042
6.299000 0.115974
6.300000 0.115886
6.301000 0.115778
6.302000 0.115651
6.303000 0.115512
6.304000 0.115377
6.305000 0.115244
6.306000 0.115110
6.307000 0.114971
6.308000 0.114824
6.309000 0.114670
6.310000 0.114512
6.311000 0.114344
6.312000 0.114160
6.313000 0.113956
6.314000 0.113727
6.315000 0.113469
6.316000 0.113187
6.317000 0.112907
6.318000 0.112671
6.319000 0.112531
6.320000 0.112529
6.321000 0.112431
6.322000 0.112205
6.323000 0.111893
6.324000 0.111547
6.325000 0.111221
6.326000 0.110951
6.327000 0.110752
6.328000 0.110627
6.329000 0.110569
6.330000 0.110569
6.331000 0.110601
6.332000 0.110596
6.333000 0.110565
6.334000 0.110519
6.335000 0.110471
6.336000 0.110430
6.337000 0.110401
6.338000 0.110388
6.339000 0.110394
6.340000 0.110384
6.341000 0.110364
6.342000 0.110349
6.343000 0.110349
6.344000 0.110304
6.345000 0.110210
6.346000 0.110068
6.347000 0.109879
6.348000 0.109654
6.349000 0.109403
6.350000 0.109138
6.351000 0.108865
6.352000 0.108600
6.353000 0.108365
6.354000 0.108189
6.355000 0.108106
6.356000 0.108101
6.357000 0.107988
6.358000 0.107788
6.359000 0.107540
6.360000 0.107285
6.361000 0.107050
6.362000 0.106839
6.363000 0.106636
6.364000 0.106423
6.365000 0.106187
6.366000 0.105918
6.367000 0.105617
6.368000 0.105294
6.369000 0.104969
6.370000 0.104664
6.371000 0.104403
6.372000 0.104209
6.373000 0.104095
6.374000 0.104065
6.375000 0.104104
6.376000 0.104189
6.377000 0.104297
6.378000 0.104400
6.379000 0.104481
6.380000 0.104535
6.381000 0.104571
6.382000 0.104609
6.383000 0.104674
6.384000 0.104792
6.385000 0.104961
6.386000 0.105084
6.387000 0.105169
6.388000 0.105235
6.389000 0.105315
6.390000 0.105441
6.391000 0.105641
6.392000 0.105822
6.393000 0.105896
6.394000 0.105835
6.395000 0.105626
6.396000 0.105280
6.397000 0.104829
6.398000 0.104330
6.399000 0.103929
6.400000 0.103793
6.401000 0.103909
6.402000 0.104087
6.403000 0.104182
6.404000 0.104232
6.405000 0.104280
6.406000 0.104359
6.407000 0.104497
6.408000 0.104464
6.409000 0.104241
6.410000 0.103865
6.411000 0.103489
6.412000 0.103186
6.413000 0.103023
6.414000 0.103048
6.415000 0.103160
6.416000 0.103124
6.417000 0.102971
6.418000 0.102731
6.419000 0.102425
6.420000 0.102054
6.421000 0.101603
6.422000 0.101049
6.423000 0.100383
6.424000 0.099618
6.425000 0.098790
6.426000 0.097961
6.427000 0.097207
6.428000 0.096596
6.429000 0.096141
6.430000 0.095907
6.431000 0.095882
6.432000 0.095961
6.433000 0.096011
6.434000 0.095900
6.435000 0.095549
6.436000 0.094954
6.437000 0.094161
6.438000 0.093229
6.439000 0.092218
6.440000 0.091184
6.441000 0.090179
6.442000 0.089247
6.443000 0.088406
6.444000 0.087642
6.445000 0.086910
6.446000 0.086146
6.447000 0.085298
6.448000 0.084351
6.449000 0.083387
6.450000 0.082470
6.451000 0.081610
6.452000 0.080837
6.453000 0.080213
6.454000 0.079820
6.455000 0.079730
6.456000 0.079918
6.457000 0.079856
6.458000 0.079636
6.459000 0.079345
6.460000 0.079055
6.461000 0.078829
6.462000 0.078764
6.463000 0.078714
6.464000 0.078522
6.465000 0.078234
6.466000 0.077900
6.467000 0.077568
6.468000 0.077289
6.469000 0.077104
6.470000 0.077027
6.471000 0.077008
6.472000 0.076946
6.473000 0.076726
6.474000 0.076402
6.475000 0.075995
6.476000 0.075485
6.477000 0.074904
6.478000 0.074296
6.479000 0.073697
6.480000 0.073131
6.481000 0.072619
6.482000 0.072448
6.483000 0.072593
6.484000 0.072757
6.485000 0.072744
6.486000 0.072599
6.487000 0.072404
6.488000 0.072444
6.489000 0.072376
6.490000 0.072031
6.491000 0.071405
6.492000 0.070704
6.493000 0.070108
6.494000 0.069653
6.495000 0.069315
6.496000 0.069056
6.497000 0.068853
6.498000 0.068703
6.499000 0.068600
6.500000 0.068502
6.501000 0.068331
6.502000 0.067999
6.503000 0.067442
6.504000 0.066720
6.505000 0.066241
6.506000 0.066023
6.507000 0.066082
6.508000 0.066429
6.509000 0.067063
6.510000 0.067723
6.511000 0.068109
6.512000 0.068224
6.513000 0.068111
6.514000 0.067833
6.515000 0.067550
6.516000 0.067643
6.517000 0.067834
6.518000 0.067851
6.519000 0.067662
6.520000 0.067249
6.521000 0.066614
6.522000 0.065798
6.523000 0.065092
6.524000 0.064469
6.525000 0.063876
6.526000 0.063312
6.527000 0.062969
6.528000 0.062799
6.529000 0.062702
6.530000 0.062562
6.531000 0.062289
6.532000 0.061896
6.533000 0.061694
6.534000 0.061637
6.535000 0.061641
6.536000 0.061648
6.537000 0.061643
6.538000 0.061629
6.539000 0.061626
6.540000 0.061587
6.541000 0.061492
6.542000 0.061339
6.543000 0.061136
6.544000 0.060916
6.545000 0.060739
6.546000 0.060663
6.547000 0.060733
6.548000 0.060972
6.549000 0.061081
6.550000 0.061023
6.551000 0.060812
6.552000 0.060493
6.553000 0.060131
6.554000 0.059785
6.555000 0.059467
6.556000 0.059295
6.557000 0.059331
6.558000 0.059546
6.559000 0.059900
6.560000 0.060330
6.561000 0.060760
6.562000 0.061134
6.563000 0.061436
6.564000 0.061705
6.565000 0.062012
6.566000 0.062406
6.567000 0.062854
6.568000 0.063214
6.569000 0.063346
6.570000 0.063460
6.571000 0.063777
6.572000 0.064214
6.573000 0.064683
6.574000 0.065098
6.575000 0.065376
6.576000 0.065448
6.577000 0.065296
6.578000 0.065403
6.579000 0.065740
6.580000 0.066274
6.581000 0.066965
6.582000 0.067747
6.583000 0.068365
6.584000 0.068800
6.585000 0.069083
6.586000 0.069274
6.587000 0.069459
6.588000 0.069721
6.589000 0.070133
6.590000 0.070702
6.591000 0.071417
6.592000 0.072304
6.593000 0.073345
6.594000 0.074484
6.595000 0.075647
6.596000 0.076760
6.597000 0.077766
6.598000 0.078654
6.599000 0.079436
6.600000 0.080093
6.601000 0.080562
6.602000 0.080768
6.603000 0.080687
6.604000 0.080795
6.605000 0.081061
6.606000 0.081387
6.607000 0.081676
6.608000 0.081839
6.609000 0.081809
6.610000 0.081955
6.611000 0.082296
6.612000 0.082752
6.613000 0.083228
6.614000 0.083631
6.615000 0.083864
6.616000 0.083851
6.617000 0.084061
6.618000 0.084456
6.619000 0.084937
6.620000 0.085410
6.621000 0.085778
6.622000 0.085960
6.623000 0.085910
6.624000 0.086084
6.625000 0.086454
6.626000 0.086958
6.627000 0.087511
6.628000 0.088020
6.629000 0.088393
6.630000 0.088548
6.631000 0.088572
6.632000 0.088812
6.633000 0.089183
6.634000 0.089586
6.635000 0.089925
6.636000 0.090129
6.637000 0.090167
6.638000 0.090185
6.639000 0.090319
6.640000 0.090540
6.641000 0.090795
6.642000 0.091022
6.643000 0.091165
6.644000 0.091190
6.645000 0.091101
6.646000 0.090938
6.647000 0.090779
6.648000 0.090668
6.649000 0.090686
6.650000 0.090841
6.651000 0.091043
6.652000 0.091330
6.653000 0.091717
6.654000 0.092154
6.655000 0.092631
6.656000 0.093162
6.657000 0.093750
6.658000 0.094364
6.659000 0.094944
6.660000 0.095415
6.661000 0.095712
6.662000 0.095806
6.663000 0.095841
6.664000 0.096025
6.665000 0.096277
6.666000 0.096516
6.667000 0.096670
6.668000 0.096723
6.669000 0.096691
6.670000 0.096715
6.671000 0.096782
6.672000 0.096889
6.673000 0.097033
6.674000 0.097206
6.675000 0.097398
6.676000 0.097603
6.677000 0.097814
6.678000 0.098028
6.679000 0.098241
6.680000 0.098451
6.681000 0.098655
6.682000 0.098848
6.683000 0.099030
6.684000 0.099199
6.685000 0.099357
6.686000 0.099503
6.687000 0.099634
6.688000 0.099745
6.689000 0.099835
6.690000 0.099901
6.691000 0.099947
6.692000 0.099973
6.693000 0.099986
6.694000 0.099990
6.695000 0.099989
6.696000 0.099988
6.697000 0.099992
6.698000 0.100005
6.699000 0.100030
6.700000 0.100069
6.701000 0.100121
6.702000 0.100184
6.703000 0.100255
6.704000 0.100318
6.705000 0.100378
6.706000 0.100435
6.707000 0.100493
6.708000 0.100552
6.709000 0.100606
6.710000 0.100649
6.711000 0.100681
6.712000 0.100704
6.713000 0.100717
6.714000 0.100724
6.715000 0.100724
6.716000 0.100719
6.717000 0.100708
6.718000 0.100690
6.719000 0.100669
6.720000 0.100656
6.721000 0.100651
6.722000 0.100649
6.723000 0.100650
6.724000 0.100655
6.725000 0.100664
6.726000 0.100676
6.727000 0.100690
6.728000 0.100701
6.729000 0.100707
6.730000 0.100708
6.731000 0.100708
6.732000 0.100707
6.733000 0.100707
6.734000 0.100706
6.735000 0.100704
6.736000 0.100698
6.737000 0.100688
6.738000 0.100680
6.739000 0.100690
6.740000 0.100716
6.741000 0.100758
6.742000 0.100812
6.743000 0.100871
6.744000 0.100933
6.745000 0.100988
6.746000 0.101034
6.747000 0.101071
6.748000 0.101102
6.749000 0.101126
6.750000 0.101139
6.751000 0.101141
6.752000 0.101144
6.753000 0.101159
6.754000 0.101181
6.755000 0.101206
6.756000 0.101227
6.757000 0.101241
6.758000 0.101244
6.759000 0.101234
6.760000 0.101208
6.761000 0.101160
6.762000 0.101115
6.763000 0.101075
6.764000 0.101036
6.765000 0.100992
6.766000 0.100940
6.767000 0.100880
6.768000 0.100816
6.769000 0.100753
6.770000 0.100697
6.771000 0.100652
6.772000 0.100621
6.773000 0.100601
6.774000 0.100585
6.775000 0.100570
6.776000 0.100551
6.777000 0.100517
6.778000 0.100452
6.779000 0.100338
6.780000 0.100238
6.781000 0.100170
6.782000 0.100118
6.783000 0.100068
6.784000 0.100013
6.785000 0.099945
6.786000 0.099857
6.787000 0.099743
6.788000 0.099595
6.789000 0.099413
6.790000 0.099196
6.791000 0.098987
6.792000 0.098784
6.793000 0.098578
6.794000 0.098370
6.795000 0.098171
6.796000 0.098002
6.797000 0.097893
6.798000 0.097870
6.799000 0.097871
6.800000 0.097779
6.801000 0.097612
6.802000 0.097396
6.803000 0.097156
6.804000 0.096914
6.805000 0.096691
6.806000 0.096516
6.807000 0.096395
6.808000 0.096330
6.809000 0.096317
6.810000 0.096349
6.811000 0.096336
6.812000 0.096280
6.813000 0.096188
6.814000 0.096066
6.815000 0.095916
6.816000 0.095742
6.817000 0.095546
6.818000 0.095336
6.819000 0.095123
6.820000 0.094920
6.821000 0.094740
6.822000 0.094592
6.823000 0.094478
6.824000 0.094396
6.825000 0.094330
6.826000 0.094265
6.827000 0.094198
6.828000 0.094144
6.829000 0.094136
6.830000 0.094076
6.831000 0.093892
6.832000 0.093597
6.833000 0.093217
6.834000 0.092784
6.835000 0.092327
6.836000 0.091859
6.837000 0.091379
6.838000 0.090882
6.839000 0.090373
6.840000 0.089870
6.841000 0.089393
6.842000 0.088966
6.843000 0.088606
6.844000 0.088325
6.845000 0.088126
6.846000 0.088005
6.847000 0.087953
6.848000 0.087964
6.849000 0.087969
6.850000 0.087928
6.851000 0.087849
6.852000 0.087740
6.853000 0.087611
6.854000 0.087469
6.855000 0.087323
6.856000 0.087182
6.857000 0.087054
6.858000 0.086940
6.859000 0.086849
6.860000 0.086798
6.861000 0.086814
6.862000 0.086891
6.863000 0.086845
6.864000 0.086670
6.865000 0.086383
